ALX,ALY,ALZ,ARX,ARY,ARZ,EMG0L,EMG1L,EMG2L,EMG3L,EMG4L,EMG5L,EMG6L,EMG7L,EMG0R,EMG1R,EMG2R,EMG3R,EMG4R,EMG5R,EMG6R,EMG7R,GLX,GLY,GLZ,GRX,GRY,GRZ,ORL,OPL,OYL,ORR,OPR,OYR,,,,,,,,,,,
0.9379883,0.2719727,0.03369141,0.9414063,-0.3466797,0.04003906,-1,0,-1,-1,0,-2,-3,2,-10,-5,8,2,0,-1,-1,-1,1.6875,1.6875,1.6875,2.25,2.25,2.25,7.503014,2.956664,8.154665,2.717674,3.065078,6.458278,,,,,,,,,,,
0.9365234,0.2700195,0.01855469,0.9355469,-0.3461914,0.03417969,3,1,1,1,0,-1,-5,26,-1,-4,-6,-5,-1,1,4,-4,-0.4375,-0.4375,-0.4375,-0.125,-0.125,-0.125,7.504933,2.95473,8.15232,2.712329,3.064645,6.464293,,,,,,,,,,,
0.9350586,0.2714844,0.02001953,0.9355469,-0.3432617,0.04248047,0,-2,-1,-1,-2,0,-1,8,1,0,0,1,-1,-2,-3,4,-0.625,-0.625,-0.625,-3.5,-3.5,-3.5,7.503373,2.952375,8.152397,2.702711,3.063369,6.471364,,,,,,,,,,,
0.9365234,0.2695313,0.02148438,0.9458008,-0.3583984,0.03808594,1,-2,-1,-1,-1,-1,1,-4,-6,11,-3,15,-10,-4,-7,-7,-0.1875,-0.1875,-0.1875,-4.375,-4.375,-4.375,7.500037,2.950467,8.154881,2.69098,3.063943,6.478003,,,,,,,,,,,
0.934082,0.2797852,0.01708984,0.9428711,-0.3852539,0.02050781,-1,-2,-1,-3,-1,0,0,0,2,-1,-1,1,-1,1,-2,24,-1.1875,-1.1875,-1.1875,-12.5625,-12.5625,-12.5625,7.49988,2.949544,8.154538,2.676129,3.069242,6.48432,,,,,,,,,,,
0.9658203,0.2832031,-0.000488281,0.9902344,-0.4121094,0.06201172,-1,-2,-1,0,1,-2,1,1,2,25,-2,19,19,0,4,-4,-3.875,-3.875,-3.875,-14.0625,-14.0625,-14.0625,7.489504,2.950876,8.161774,2.68618,3.0878,6.45115,,,,,,,,,,,
0.9619141,0.2939453,-0.002929688,0.9560547,-0.4047852,0.04443359,-1,1,1,1,-1,3,3,-1,-1,2,-3,-7,-10,1,-1,2,7.6875,7.6875,7.6875,-3.75,-3.75,-3.75,7.458871,2.960555,8.198681,2.761873,3.122571,6.363914,,,,,,,,,,,
0.9731445,0.3442383,0.03613281,0.9995117,-0.3896484,0.105957,-3,-4,-5,-5,-2,-2,-3,-11,-2,2,1,30,60,7,-2,17,-2.625,-2.625,-2.625,-20.625,-20.625,-20.625,7.391161,2.983072,8.269973,2.853683,3.175029,6.242115,,,,,,,,,,,
0.9599609,0.3798828,0.0625,0.9819336,-0.4423828,0.1518555,0,5,23,4,2,1,-1,-3,-1,8,-1,17,59,8,-2,-7,-2.3125,-2.3125,-2.3125,-34.625,-34.625,-34.625,7.294902,3.027902,8.366576,2.954868,3.250805,6.092226,,,,,,,,,,,
1.003906,0.4287109,0.1225586,0.9604492,-0.6450195,0.2426758,-3,-10,-32,1,1,1,1,3,-3,0,0,-4,-8,7,-2,-9,14.1875,14.1875,14.1875,-29.25,-29.25,-29.25,7.131518,3.14198,8.552128,3.078917,3.430234,5.878004,,,,,,,,,,,
1.031738,0.5302734,0.1782227,0.847168,-0.6816406,0.3178711,0,-8,-27,-10,-3,2,0,-1,-2,1,-4,-9,-16,-28,-7,-4,13.5625,13.5625,13.5625,3,3,3,7.018039,3.25429,8.696135,3.184962,3.584368,5.741301,,,,,,,,,,,
0.9829102,0.6171875,0.2348633,0.7197266,-0.6713867,0.3774414,0,8,15,-14,-1,-3,0,-2,-3,-6,-11,-19,-9,-9,-12,-2,-3.4375,-3.4375,-3.4375,7.1875,7.1875,7.1875,6.898338,3.401264,8.837515,3.278178,3.751413,5.627626,,,,,,,,,,,
0.8251953,0.6181641,0.3608398,0.5839844,-0.7314453,0.5043945,-1,1,1,-3,4,1,-7,-6,1,0,1,0,19,15,-6,-3,-9.625,-9.625,-9.625,21.875,21.875,21.875,6.788808,3.578272,8.958184,3.358484,3.936517,5.533086,,,,,,,,,,,
0.6831055,0.6743164,0.46875,0.4746094,-0.6850586,0.5205078,2,10,-16,13,-1,-2,1,-1,2,8,4,6,2,-3,-4,0,-3,-3,-3,40.75,40.75,40.75,6.713751,3.777849,9.048085,3.449716,4.133247,5.445413,,,,,,,,,,,
0.5415039,0.7358398,0.5385742,0.4228516,-0.6801758,0.5673828,-2,-2,2,5,-25,-5,6,-2,-2,-4,-2,-7,-7,-12,-4,0,-11.4375,-11.4375,-11.4375,34.875,34.875,34.875,6.655561,4.000309,9.119559,3.49022,4.234698,5.403237,,,,,,,,,,,
0.3554688,0.7431641,0.5024414,0.2172852,-0.7016602,0.5307617,0,-5,-22,2,13,1,-13,1,-2,-1,2,5,12,-15,-9,-4,-14.8125,-14.8125,-14.8125,18.75,18.75,18.75,6.609265,4.236761,9.168703,3.575881,4.538543,5.29976,,,,,,,,,,,
0.3066406,0.7250977,0.5043945,0.1933594,-0.7070313,0.5546875,-2,-14,4,-60,13,-1,0,-1,-4,-1,1,1,4,3,0,-3,-11.9375,-11.9375,-11.9375,6.375,6.375,6.375,6.594231,4.351779,9.187841,3.595485,4.721174,5.244901,,,,,,,,,,,
0.2612305,0.6782227,0.5009766,0.1171875,-0.7304688,0.5605469,2,14,16,5,6,7,10,3,0,-2,-4,4,2,-7,2,-1,-1.0625,-1.0625,-1.0625,3.8125,3.8125,3.8125,6.576571,4.571033,9.220903,3.606131,4.878971,5.197756,,,,,,,,,,,
0.08544922,0.7651367,0.4746094,0.1005859,-0.7084961,0.581543,3,-4,-2,57,8,2,10,10,2,-1,0,32,10,1,-2,1,15.0625,15.0625,15.0625,-7.125,-7.125,-7.125,6.582989,4.774013,9.249751,3.600344,5.000829,5.157912,,,,,,,,,,,
0.1123047,0.7426758,0.5712891,0.05664063,-0.7841797,0.6245117,-2,8,13,15,31,5,-2,-3,1,1,4,3,1,3,1,4,-2.625,-2.625,-2.625,-0.1875,-0.1875,-0.1875,6.585062,5.007609,9.293595,3.59294,5.094253,5.130917,,,,,,,,,,,
-0.04833984,0.7177734,0.4819336,0,-0.6889648,0.5805664,0,-1,-9,-1,-1,-1,-3,3,1,1,-1,-2,2,2,-3,1,23.75,23.75,23.75,1.5,1.5,1.5,6.600782,5.124469,9.325467,3.595618,5.157857,5.110247,,,,,,,,,,,
-0.05566406,0.7685547,0.4897461,-0.03271484,-0.753418,0.5966797,-2,11,-3,15,2,3,5,-3,-3,-2,-4,-14,-17,-13,-5,0,18.25,18.25,18.25,-10.375,-10.375,-10.375,6.627611,5.197975,9.348482,3.583901,5.202821,5.100998,,,,,,,,,,,
-0.04541016,0.7421875,0.5258789,-0.04638672,-0.7416992,0.6474609,-1,-8,-2,1,10,4,7,3,0,1,3,7,8,14,-2,0,9.1875,9.1875,9.1875,-8.625,-8.625,-8.625,6.631782,5.216671,9.361032,3.580287,5.215266,5.097696,,,,,,,,,,,
-0.1147461,0.7885742,0.5400391,-0.09619141,-0.7363281,0.6113281,2,-14,0,-4,2,0,1,2,0,-2,-3,-13,-4,-21,-3,0,9.6875,9.6875,9.6875,2.625,2.625,2.625,6.64039,5.242677,9.381651,3.581487,5.231251,5.093398,,,,,,,,,,,
-0.1245117,0.8325195,0.5419922,-0.08789063,-0.6811523,0.3735352,8,3,2,9,-21,3,1,3,1,-3,-6,0,-6,-1,2,-3,-0.875,-0.875,-0.875,-15.375,-15.375,-15.375,6.638959,5.244903,9.385401,3.565741,5.243751,5.099236,,,,,,,,,,,
-0.2744141,0.824707,0.5634766,0.5336914,-0.6713867,0.7163086,-7,-2,-4,-53,-22,-7,-10,-7,-2,1,0,-9,-1,-12,1,1,2.8125,2.8125,2.8125,12.375,12.375,12.375,6.626097,5.256016,9.391071,3.579529,5.223094,5.100419,,,,,,,,,,,
-0.2348633,0.8623047,0.4677734,-0.2851563,-0.6489258,0.1806641,0,-2,-4,13,40,4,1,1,1,-2,-1,6,0,4,0,-3,0.5625,0.5625,0.5625,27.1875,27.1875,27.1875,6.629519,5.265011,9.384666,3.583504,5.230734,5.09529,,,,,,,,,,,
-0.296875,0.8911133,0.4804688,0.3706055,-0.6435547,0.9121094,3,3,3,11,4,1,0,-5,-1,0,9,8,-4,-5,3,0,1.0625,1.0625,1.0625,-3.3125,-3.3125,-3.3125,6.631156,5.274532,9.38013,3.592202,5.245552,5.086851,,,,,,,,,,,
-0.3569336,0.8295898,0.4897461,-0.9414063,-0.8818359,0.02978516,-17,1,-2,-6,2,0,15,-8,0,0,-3,-2,9,7,0,1,-4.4375,-4.4375,-4.4375,13.9375,13.9375,13.9375,6.627349,5.302701,9.359711,3.582401,5.283548,5.072471,,,,,,,,,,,
-0.2514648,0.7250977,0.4951172,-0.7817383,-0.9023438,0.2597656,-1,-6,-2,1,-3,-2,-4,-41,-2,-2,-3,-5,-6,-9,-2,1,26.3125,26.3125,26.3125,-15.5,-15.5,-15.5,6.636657,5.318393,9.3293,3.575022,5.299781,5.07105,,,,,,,,,,,
-0.2475586,0.8134766,0.4780273,-0.8012695,-0.8808594,-0.002441406,-2,-1,-1,-2,6,-11,9,66,1,-1,-2,-5,-4,-13,-2,-2,27.8125,27.8125,27.8125,-6.25,-6.25,-6.25,6.664654,5.290754,9.319373,3.557152,5.310829,5.068089,,,,,,,,,,,
-0.03808594,0.7514648,0.5053711,0.40625,-0.5537109,1.130859,2,2,-16,-29,80,-11,28,-9,-2,0,-6,-8,-7,-9,-2,-1,16.1875,16.1875,16.1875,-1.4375,-1.4375,-1.4375,6.675542,5.216464,9.321788,3.577615,5.289526,5.076163,,,,,,,,,,,
0.046875,1.098633,0.5566406,-0.6367188,-0.7983398,-0.01074219,1,-4,-15,-3,-29,28,-5,6,-2,0,5,2,4,-1,-1,-2,116.75,116.75,116.75,-17,-17,-17,6.775178,5.163996,9.311241,3.55099,5.309992,5.085396,,,,,,,,,,,
0.1694336,1.208984,0.4052734,-0.706543,-1.045898,-0.08935547,-1,-18,8,0,-13,26,32,3,-1,0,0,7,4,6,-1,0,-9.75,-9.75,-9.75,-0.375,-0.375,-0.375,6.823752,5.114069,9.358396,3.492164,5.344563,5.082962,,,,,,,,,,,
0.015625,0.9633789,0.4355469,-0.7333984,-0.9433594,-0.2148438,-9,-1,-9,-9,15,16,-2,0,-1,-1,2,0,0,27,-7,-6,-30.0625,-30.0625,-30.0625,-3.375,-3.375,-3.375,6.810105,5.102761,9.39667,3.439044,5.371071,5.079983,,,,,,,,,,,
-0.2255859,0.8867188,0.5712891,-0.2426758,-0.6640625,0.5097656,-27,43,32,1,-17,-1,-13,3,-5,-3,-3,-16,0,2,-1,-3,-72.875,-72.875,-72.875,-19.3125,-19.3125,-19.3125,6.719683,5.104747,9.51103,3.40256,5.36937,5.082744,,,,,,,,,,,
-0.3266602,0.8549805,0.559082,0.2729492,-0.7451172,1.557617,2,-47,-16,-2,-3,1,-6,-6,1,0,-4,-5,1,5,-2,-1,-69.5,-69.5,-69.5,0.9375,0.9375,0.9375,6.634309,5.160013,9.551822,3.465695,5.305116,5.096345,,,,,,,,,,,
-0.3408203,0.7592773,0.4584961,-0.4399414,-0.7915039,0.1245117,1,-12,-3,-3,-1,-3,-6,0,-1,0,9,11,3,7,2,-1,-27.625,-27.625,-27.625,4.375,4.375,4.375,6.589757,5.245144,9.531847,3.438795,5.316664,5.084944,,,,,,,,,,,
-0.253418,0.8071289,0.4458008,-0.1699219,-1.007813,0.6538086,-4,-5,-18,-21,-88,4,-12,-8,-3,-1,0,2,-1,1,-5,-3,-0.125,-0.125,-0.125,7.4375,7.4375,7.4375,6.580272,5.301712,9.478533,3.489663,5.289417,5.089161,,,,,,,,,,,
-0.2871094,0.7353516,0.3671875,-0.215332,-0.7954102,0.6235352,4,-9,3,-11,9,-2,1,-4,1,-1,2,-1,-1,-7,0,-1,-0.8125,-0.8125,-0.8125,9.125,9.125,9.125,6.577123,5.317179,9.444452,3.502013,5.288322,5.093096,,,,,,,,,,,
-0.07324219,0.8808594,0.4550781,-0.1855469,-0.7856445,0.5839844,3,-9,-5,10,16,2,6,-2,-1,1,0,-4,-5,-2,-1,-1,86.8125,86.8125,86.8125,1.1875,1.1875,1.1875,6.631408,5.326324,9.364079,3.50773,5.29709,5.097865,,,,,,,,,,,
0.02441406,1.097656,0.534668,-0.1616211,-0.8134766,0.5966797,-3,23,8,11,-17,-3,0,0,0,-3,-3,-6,2,-7,-4,-3,12.5625,12.5625,12.5625,-6.6875,-6.6875,-6.6875,6.678468,5.301569,9.329303,3.502969,5.299662,5.104743,,,,,,,,,,,
-0.2294922,0.6811523,0.6225586,-0.1162109,-0.8208008,0.6508789,-1,20,2,-4,-1,-4,0,0,-2,-1,0,2,-1,-3,2,0,-33.4375,-33.4375,-33.4375,4.5,4.5,4.5,6.632425,5.270735,9.355412,3.507131,5.295134,5.11239,,,,,,,,,,,
-0.2246094,0.8203125,0.4951172,-0.1567383,-0.7290039,0.605957,7,-3,4,-10,42,0,2,3,-2,-2,1,0,2,8,-8,-1,17.3125,17.3125,17.3125,0.625,0.625,0.625,6.640117,5.25754,9.375354,3.516776,5.294727,5.115741,,,,,,,,,,,
-0.2192383,0.8398438,0.5288086,-0.1699219,-0.7480469,0.6308594,-5,-11,3,83,12,-2,-1,-2,-1,-1,-3,-1,-2,-1,3,3,-10.4375,-10.4375,-10.4375,-8.5625,-8.5625,-8.5625,6.641326,5.247934,9.377633,3.514074,5.292012,5.113816,,,,,,,,,,,
-0.21875,0.8022461,0.5170898,-0.2143555,-0.7636719,0.6166992,-3,-10,-2,-16,5,3,-1,1,1,0,-1,15,2,0,4,3,-8.0625,-8.0625,-8.0625,8.8125,8.8125,8.8125,6.635064,5.247778,9.372924,3.521168,5.284108,5.099271,,,,,,,,,,,
-0.1557617,0.90625,0.5161133,-0.199707,-0.7773438,0.5947266,0,-4,0,28,-13,-6,0,-1,0,-1,0,1,6,14,3,2,-0.4375,-0.4375,-0.4375,-2.3125,-2.3125,-2.3125,6.638949,5.252478,9.358515,3.523134,5.283525,5.099274,,,,,,,,,,,
-0.1669922,0.8505859,0.5083008,-0.1665039,-0.8178711,0.6386719,-4,-3,-4,-11,-1,3,0,0,-2,-1,4,4,-4,-7,-1,-2,-2.375,-2.375,-2.375,-0.875,-0.875,-0.875,6.634202,5.25261,9.355055,3.522116,5.280341,5.102755,,,,,,,,,,,
-0.1669922,0.8618164,0.5117188,-0.1538086,-0.7768555,0.6337891,1,7,-4,-2,-5,-1,-1,0,0,0,-1,-4,10,14,-1,1,3.875,3.875,3.875,4.3125,4.3125,4.3125,6.636144,5.252668,9.352255,3.529804,5.278354,5.103434,,,,,,,,,,,
-0.184082,0.8916016,0.5102539,-0.1503906,-0.7875977,0.6367188,-1,2,1,0,0,-3,-1,-3,-2,0,-2,1,0,7,-2,1,1.125,1.125,1.125,-3.3125,-3.3125,-3.3125,6.641346,5.252612,9.349509,3.53001,5.277207,5.099865,,,,,,,,,,,
-0.2021484,0.8139648,0.5161133,-0.1225586,-0.7792969,0.6157227,-1,6,1,4,-7,-1,-10,-6,0,0,-2,-1,-2,-9,-2,0,1.125,1.125,1.125,-0.5,-0.5,-0.5,6.635669,5.25686,9.341265,3.529566,5.271367,5.092469,,,,,,,,,,,
-0.1879883,0.8061523,0.5195313,-0.1357422,-0.7714844,0.5576172,-1,-2,-1,-3,-4,-2,6,-9,2,-2,-3,-1,-3,-1,-6,0,0.75,0.75,0.75,-0.1875,-0.1875,-0.1875,6.634211,5.257152,9.336194,3.52814,5.25527,5.094027,,,,,,,,,,,
-0.1879883,0.8061523,0.5195313,-0.1484375,-0.7016602,0.5537109,8,3,2,2,2,0,-11,20,-1,0,0,0,1,-2,-2,-4,0.75,0.75,0.75,-0.4375,-0.4375,-0.4375,6.634211,5.257152,9.336194,3.53122,5.22494,5.114718,,,,,,,,,,,
-0.2001953,0.7319336,0.4702148,-0.1743164,-0.6967773,0.4990234,-4,-2,3,-1,-2,0,4,-12,-1,-4,1,-2,-2,-2,-1,-1,-15.3125,-15.3125,-15.3125,-5.875,-5.875,-5.875,6.614934,5.224697,9.302635,3.52985,5.202169,5.133772,,,,,,,,,,,
-0.1396484,0.7192383,0.40625,0.01904297,-0.7885742,0.5478516,-2,1,0,-3,0,2,6,18,-6,-35,-23,1,1,4,4,3,-0.5,-0.5,-0.5,-12.9375,-12.9375,-12.9375,6.608235,5.159492,9.262099,3.502442,5.06707,5.217501,,,,,,,,,,,
-0.08105469,0.7836914,0.4453125,0.003417969,-0.6987305,0.5439453,-4,-2,-4,-2,-3,-2,2,-3,0,6,6,-5,-3,-4,-2,-1,-26.5,-26.5,-26.5,7.5625,7.5625,7.5625,6.588877,5.0453,9.219581,3.509767,4.947382,5.285556,,,,,,,,,,,
-0.05957031,0.6547852,0.4560547,0.09326172,-0.6523438,0.4775391,-1,-2,3,1,0,3,1,3,-5,6,18,6,-1,-8,-18,-6,-42.9375,-42.9375,-42.9375,-42.625,-42.625,-42.625,6.544191,4.884711,9.174664,3.474848,4.791922,5.365046,,,,,,,,,,,
0.2587891,0.5195313,0.5332031,0.324707,-0.7905273,0.5332031,1,2,1,0,-15,21,-12,33,7,3,-1,-2,-2,-1,-18,0,-5.1875,-5.1875,-5.1875,-39.75,-39.75,-39.75,6.531687,4.676366,9.124816,3.408355,4.610661,5.44177,,,,,,,,,,,
0.324707,0.7421875,0.4047852,0.3491211,-0.6870117,0.453125,-24,0,-1,4,14,19,2,0,-4,17,10,-2,-3,-4,-1,-1,54.375,54.375,54.375,-26.5,-26.5,-26.5,6.635293,4.333144,9.03621,3.357923,4.414446,5.518423,,,,,,,,,,,
0.574707,0.7978516,0.4199219,0.612793,-0.6679688,0.4829102,0,-1,0,1,-2,-3,0,-1,5,2,-1,-9,-2,-4,-4,-5,47.8125,47.8125,47.8125,-20,-20,-20,6.680934,4.209451,8.993372,3.302911,4.199698,5.591501,,,,,,,,,,,
0.59375,0.6142578,0.4604492,0.6328125,-0.625,0.3632813,1,-2,-1,-14,-17,-17,-10,-3,1,0,-4,-2,15,9,3,2,15.75,15.75,15.75,-33.75,-33.75,-33.75,6.751235,3.969334,8.909232,3.225118,3.982575,5.681718,,,,,,,,,,,
0.6567383,0.5625,0.3823242,1.009277,-0.6396484,0.355957,10,1,2,-1,3,1,1,-1,2,1,1,0,-5,-2,3,-2,29.875,29.875,29.875,-30.0625,-30.0625,-30.0625,6.796642,3.843324,8.862494,3.120195,3.761197,5.786268,,,,,,,,,,,
0.9672852,0.559082,0.2929688,0.9165039,-0.5571289,0.2729492,-5,1,-1,-1,-1,-3,1,0,-1,0,-1,-1,-2,-3,-4,-2,61.6875,61.6875,61.6875,-12.875,-12.875,-12.875,6.943936,3.60063,8.746301,3.024432,3.566091,5.892825,,,,,,,,,,,
1.106934,0.5449219,0.08984375,1.001465,-0.4848633,0.1899414,-18,-10,-4,0,-2,-2,-1,-5,0,-3,0,-2,-1,1,0,-2,5.4375,5.4375,5.4375,-19.0625,-19.0625,-19.0625,7.254755,3.28441,8.438609,2.887922,3.388345,6.035708,,,,,,,,,,,
1.14502,0.418457,-0.09667969,1.044434,-0.4921875,0.09179688,1,-2,-1,1,1,1,-3,1,0,-2,-1,-3,-1,-2,-1,-1,-36.75,-36.75,-36.75,-0.8125,-0.8125,-0.8125,7.51198,3.12797,8.119255,2.7175,3.241426,6.222714,,,,,,,,,,,
1.110352,0.3847656,-0.2490234,1.057617,-0.449707,0.01855469,5,1,0,2,1,2,1,15,-2,0,-1,-1,0,0,-2,-2,-32.1875,-32.1875,-32.1875,25.3125,25.3125,25.3125,7.80454,3.029985,7.767291,2.540391,3.128654,6.441161,,,,,,,,,,,
1.072754,0.3447266,-0.2231445,1.035156,-0.4057617,-0.04199219,-7,-3,-4,-2,0,1,0,-1,0,-2,1,1,-2,1,0,-2,-22.125,-22.125,-22.125,43.0625,43.0625,43.0625,8.061606,2.970902,7.470559,2.377741,3.049615,6.662281,,,,,,,,,,,
1.033203,0.2954102,-0.1279297,1.031738,-0.3666992,-0.04199219,-2,0,-2,-3,-1,-4,1,-5,-4,-2,-2,-2,-1,-2,0,1,-2.8125,-2.8125,-2.8125,45.0625,45.0625,45.0625,8.194366,2.933327,7.323138,2.256372,2.996165,6.84377,,,,,,,,,,,
0.9873047,0.28125,-0.01464844,1.004395,-0.3330078,0.009277344,-12,-3,-2,-3,-2,0,14,-72,-2,0,-1,-1,0,-1,-1,-3,25.4375,25.4375,25.4375,29.8125,29.8125,29.8125,8.190488,2.901143,7.347556,2.198008,2.957758,6.947091,,,,,,,,,,,
0.9248047,0.3520508,0.07861328,0.965332,-0.3583984,0.06201172,8,-1,0,0,0,-1,-2,11,-2,-2,-9,0,-1,-1,0,-3,43.8125,43.8125,43.8125,14.3125,14.3125,14.3125,8.084283,2.876717,7.49883,2.203083,2.93131,6.964156,,,,,,,,,,,
0.84375,0.4111328,0.1220703,0.9086914,-0.3769531,0.1025391,2,1,-2,-1,1,2,1,-14,0,-2,3,-3,0,-2,0,-1,1.8125,1.8125,1.8125,15.625,15.625,15.625,7.89758,2.866983,7.721138,2.25694,2.917847,6.928987,,,,,,,,,,,
0.8691406,0.3530273,0.08837891,0.8881836,-0.362793,0.09960938,-1,2,0,-1,-1,-2,2,8,-1,1,1,-1,-1,-1,-3,-4,-30.4375,-30.4375,-30.4375,15.1875,15.1875,15.1875,7.803901,2.868888,7.787305,2.308418,2.911639,6.896461,,,,,,,,,,,
0.9111328,0.2827148,0.02978516,0.8969727,-0.3666992,0.07763672,1,-1,-1,-3,-2,0,-1,-4,-1,-2,1,3,0,-1,-1,1,-34.25,-34.25,-34.25,16.0625,16.0625,16.0625,7.725492,2.870822,7.82581,2.331215,2.912732,6.883352,,,,,,,,,,,
0.9223633,0.2460938,0.01025391,0.9057617,-0.3515625,0.05761719,4,-2,0,-1,-2,1,-3,-9,-3,0,-1,-3,-2,0,1,-1,-24.0625,-24.0625,-24.0625,21.3125,21.3125,21.3125,7.699201,2.87131,7.83939,2.38285,2.921382,6.854549,,,,,,,,,,,
0.9863281,0.2446289,-0.04003906,0.9375,-0.3212891,-0.006347656,1,0,-3,1,-1,-4,0,-4,0,-1,0,-1,0,-1,-1,-3,3.3125,3.3125,3.3125,23,23,23,7.667457,2.875721,7.868804,2.433287,2.937043,6.829701,,,,,,,,,,,
