ALX,ALY,ALZ,ARX,ARY,ARZ,EMG0L,EMG1L,EMG2L,EMG3L,EMG4L,EMG5L,EMG6L,EMG7L,EMG0R,EMG1R,EMG2R,EMG3R,EMG4R,EMG5R,EMG6R,EMG7R,GLX,GLY,GLZ,GRX,GRY,GRZ,ORL,OPL,OYL,ORR,OPR,OYR,,,,,
0.9243164,0.3007813,0.02685547,0.9360352,-0.3764648,0.07519531,-1,-2,-1,-1,-1,2,-2,-1,0,1,5,5,-2,-2,-19,0,-1.75,-1.75,-1.75,-10.0625,-10.0625,-10.0625,7.454993,2.998316,9.936547,2.806721,3.107144,6.462244,,,,,
0.934082,0.3198242,0.02929688,0.9990234,-0.4199219,0.0625,1,-1,-1,-2,2,0,-1,-5,-3,-3,-3,10,50,2,-14,-1,-0.9375,-0.9375,-0.9375,-3.5,-3.5,-3.5,7.459918,2.99848,9.9297,2.848256,3.129671,6.409762,,,,,
0.9414063,0.3535156,0.01171875,1.055176,-0.4794922,0.08935547,2,6,7,2,1,0,-2,1,-1,-2,-3,5,-24,-2,10,-1,-6.25,-6.25,-6.25,1.5,1.5,1.5,7.447159,3.007232,9.935392,2.929816,3.180182,6.319022,,,,,
0.9506836,0.3730469,0.008789063,1.028809,-0.5029297,0.184082,-6,14,15,2,1,0,-1,-5,-1,1,-1,4,14,-1,1,0,-13.9375,-13.9375,-13.9375,2.75,2.75,2.75,7.430344,3.015053,9.94553,3.061471,3.26604,6.179534,,,,,
1.02002,0.3691406,0.009765625,0.9677734,-0.5893555,0.3046875,0,7,23,-5,-3,-1,4,1,2,1,9,-3,6,8,-1,-1,-41.875,-41.875,-41.875,-6.3125,-6.3125,-6.3125,7.295756,3.065714,0.02291115,3.179725,3.390176,6.036871,,,,,
1.064941,0.3959961,0.06835938,0.8637695,-0.6557617,0.3701172,-1,8,11,8,1,0,-2,-1,2,3,26,13,5,0,0,3,-40.5625,-40.5625,-40.5625,-1,-1,-1,7.221074,3.097903,0.07842086,3.284874,3.552671,5.905092,,,,,
1.106445,0.4360352,0.1845703,0.7895508,-0.7016602,0.3959961,-2,-11,-6,5,-1,-5,-21,-4,-3,-3,-15,21,7,8,19,-3,-2.875,-2.875,-2.875,-7.8125,-7.8125,-7.8125,7.046561,3.195704,0.2506978,3.326559,3.641802,5.845448,,,,,
1,0.6230469,0.2431641,0.6645508,-0.7265625,0.4570313,-1,-13,-9,-33,-5,-4,-11,1,2,4,1,-5,-5,-2,-5,-3,32.1875,32.1875,32.1875,-1.125,-1.125,-1.125,6.919738,3.35068,0.4284701,3.401195,3.830487,5.736106,,,,,
1,0.6230469,0.2431641,0.6645508,-0.7265625,0.4570313,-1,-13,-9,-33,-5,-4,-11,1,2,4,1,-5,-5,-2,-5,-3,32.1875,32.1875,32.1875,-1.125,-1.125,-1.125,6.919738,3.35068,0.4284701,3.401195,3.830487,5.736106,,,,,
0.8764648,0.7578125,0.3959961,0.5771484,-0.6542969,0.5126953,0,-4,-6,76,-14,-3,-26,-5,-3,-10,-25,-6,-2,-6,-3,-1,1,1,1,-6.375,-6.375,-6.375,6.800375,3.54998,0.5888801,3.464746,4.025333,5.625602,,,,,
0.6875,0.6738281,0.456543,0.4345703,-0.7314453,0.4868164,0,-1,-13,-19,-8,-9,2,0,4,18,18,-3,1,-15,1,5,-8.3125,-8.3125,-8.3125,-18.0625,-18.0625,-18.0625,6.694436,3.775086,0.7132311,3.49511,4.226485,5.531106,,,,,
0.5751953,0.6987305,0.5239258,0.371582,-0.7250977,0.5927734,-2,-2,-16,-13,17,6,10,-1,-4,-5,-11,-8,-5,-1,-4,-1,1.0625,1.0625,1.0625,-10,-10,-10,6.636712,4.021531,0.7994453,3.518967,4.423773,5.441617,,,,,
0.4404297,0.7075195,0.5024414,0.3295898,-0.6704102,0.5551758,0,-1,-14,-36,-12,-3,-9,-2,2,-5,-14,-5,8,3,5,-2,3.9375,3.9375,3.9375,-2.3125,-2.3125,-2.3125,6.619148,4.150475,0.8351809,3.531491,4.520712,5.400331,,,,,
0.3330078,0.7231445,0.5039063,0.1455078,-0.6728516,0.5019531,-1,-4,-12,-8,-14,-7,-4,-1,0,-5,-6,1,8,-3,8,0,0.25,0.25,0.25,-26.125,-26.125,-26.125,6.595463,4.400491,0.8940943,3.5306,4.701965,5.323281,,,,,
0.1445313,0.684082,0.4633789,0.1381836,-0.7441406,0.5576172,1,8,16,-6,-7,-1,5,2,-1,-2,-2,2,12,10,15,1,2.875,2.875,2.875,-30.5625,-30.5625,-30.5625,6.580443,4.632482,0.9449748,3.505839,4.852815,5.254656,,,,,
0.09912109,0.7109375,0.4921875,0.04150391,-0.7241211,0.5708008,1,-4,0,-10,2,-1,-4,0,-3,0,3,9,6,6,-2,-2,13.375,13.375,13.375,-13.25,-13.25,-13.25,6.586398,4.828854,0.9875125,3.491089,4.975564,5.194752,,,,,
0.01708984,0.7338867,0.5048828,0.04638672,-0.6918945,0.5268555,-2,6,13,27,27,8,7,15,-2,1,2,-3,5,11,-5,-7,23,23,23,-24.5,-24.5,-24.5,6.602991,4.99068,1.022674,3.472106,5.065827,5.152037,,,,,
0.002441406,0.7558594,0.5024414,0.03369141,-0.7485352,0.5317383,2,-2,-5,-25,-23,-7,-19,-1,0,-1,-3,-1,-3,-4,-4,-1,30.875,30.875,30.875,-32.875,-32.875,-32.875,6.61932,5.05298,1.036832,3.45361,5.100731,5.136579,,,,,
-0.007324219,0.7875977,0.5,-0.03027344,-0.8217773,0.5834961,-1,14,8,14,6,-1,-3,-3,-1,-2,-5,-3,6,1,-3,-1,14.6875,14.6875,14.6875,-9.8125,-9.8125,-9.8125,6.64106,5.145343,1.060984,3.433813,5.152416,5.112729,,,,,
-0.03955078,0.7617188,0.5107422,-0.04052734,-0.7744141,0.5424805,-1,-5,0,-11,57,8,-6,-4,0,-1,-3,-7,-5,-12,1,-1,15.375,15.375,15.375,1.4375,1.4375,1.4375,6.648763,5.179156,1.071459,3.434507,5.171381,5.104171,,,,,
-0.1645508,0.9077148,0.2563477,-0.09082031,-0.7895508,0.5629883,0,-3,-6,2,-4,-2,0,-2,-1,-2,-3,-6,-4,5,2,3,32.125,32.125,32.125,-20.875,-20.875,-20.875,6.709778,5.250223,1.110582,3.41618,5.2105,5.091399,,,,,
-0.1948242,0.7949219,0.4697266,-0.09130859,-0.8378906,0.5581055,-2,-6,-9,-50,-6,-4,-5,-5,-3,-2,0,-5,-7,-2,-2,0,15.6875,15.6875,15.6875,6.0625,6.0625,6.0625,6.719072,5.261957,1.122488,3.413449,5.22169,5.087625,,,,,
-0.1020508,0.7114258,0.7768555,-0.08007813,-0.7861328,0.5239258,3,-3,1,0,5,-1,1,-3,-2,1,-3,-4,2,-5,3,1,12.1875,12.1875,12.1875,12.5625,12.5625,12.5625,6.716087,5.265832,1.146994,3.421,5.225511,5.088641,,,,,
-0.1650391,1.015137,0.1616211,-0.1469727,-0.8203125,0.534668,-1,-5,-5,-3,-13,-3,2,-1,-2,-2,-8,-19,2,0,2,-2,30.9375,30.9375,30.9375,-4.1875,-4.1875,-4.1875,6.748224,5.266482,1.163606,3.421982,5.23267,5.095026,,,,,
-0.8027344,0.8964844,0.3051758,-0.1162109,-0.8486328,0.5800781,-1,-1,-3,-13,0,-2,0,3,2,0,-2,4,-5,-3,-3,-2,4.5625,4.5625,4.5625,10.5,10.5,10.5,6.776827,5.319059,1.189982,3.427945,5.229529,5.098163,,,,,
0.2885742,1.006348,0.4140625,-0.1914063,-0.8095703,0.5424805,-7,-7,-4,-7,1,-2,3,3,-2,-3,-3,-1,-8,-10,1,1,0.3125,0.3125,0.3125,5.125,5.125,5.125,6.792322,5.323908,1.197296,3.438367,5.2332,5.095243,,,,,
-0.8725586,0.7148438,0.4179688,-0.1875,-0.8955078,0.5541992,0,-3,-2,-6,0,0,4,0,1,0,1,-9,-3,-8,-1,0,3.9375,3.9375,3.9375,2.625,2.625,2.625,6.798235,5.383261,1.177869,3.434713,5.238037,5.086921,,,,,
-0.02197266,0.6435547,0.6884766,-0.1958008,-0.8510742,0.5708008,-4,-1,-4,-1,0,-3,-18,-38,0,0,4,9,0,-7,-1,1,-3.1875,-3.1875,-3.1875,5.9375,5.9375,5.9375,6.759532,5.347401,1.150257,3.440112,5.250166,5.080572,,,,,
-0.2587891,0.7871094,0.4765625,-0.2055664,-0.862793,0.5678711,-7,-4,-3,-2,17,15,8,8,0,-2,3,1,-4,-6,1,0,8.4375,8.4375,8.4375,-0.875,-0.875,-0.875,6.75947,5.343974,1.140712,3.439074,5.271303,5.074555,,,,,
-0.2260742,0.7592773,0.4438477,-0.2099609,-0.8442383,0.5483398,6,0,0,13,3,0,10,32,3,0,0,-1,-4,-5,-2,-1,21.9375,21.9375,21.9375,0.625,0.625,0.625,6.770785,5.317865,1.120854,3.437315,5.297654,5.069474,,,,,
-0.06591797,0.8330078,0.3583984,-0.2094727,-0.8227539,0.5083008,0,-3,-5,12,-24,-41,7,2,-2,0,0,-1,-2,-4,-6,-4,47.625,47.625,47.625,0.25,0.25,0.25,6.805147,5.259284,1.084422,3.435471,5.321606,5.068933,,,,,
0.04394531,1.082031,0.5390625,-0.2172852,-0.8041992,0.5053711,4,13,28,1,11,-11,-4,6,-2,1,-1,-3,0,-4,2,-1,64.0625,64.0625,64.0625,-8.1875,-8.1875,-8.1875,6.868113,5.199042,1.055889,3.429687,5.334628,5.08076,,,,,
-0.06201172,1.055664,0.5214844,-0.1904297,-0.8100586,0.5073242,-12,-10,-1,-6,-15,-8,-27,-36,0,-2,-2,-3,-2,-1,-8,-4,-1.6875,-1.6875,-1.6875,-11.875,-11.875,-11.875,6.885108,5.15649,1.074209,3.419195,5.327932,5.097867,,,,,
0.05126953,0.8847656,0.3823242,-0.1767578,-0.8022461,0.5327148,-7,-3,-5,-37,-14,-12,-24,-28,-3,0,7,17,-2,3,1,-1,-11.375,-11.375,-11.375,-6.1875,-6.1875,-6.1875,6.870326,5.126855,1.118175,3.413495,5.305452,5.112697,,,,,
-0.1484375,1.012207,0.5097656,-0.175293,-0.8071289,0.5361328,-22,-30,-2,10,4,-8,-8,-19,2,1,2,6,-1,-7,0,-2,-44.6875,-44.6875,-44.6875,-6.0625,-6.0625,-6.0625,6.836937,5.115777,1.183664,3.412033,5.291806,5.119974,,,,,
-0.3007813,0.9067383,0.5087891,-0.09277344,-0.8398438,0.6049805,12,-12,-27,2,-4,-1,-5,-1,-1,-1,2,4,-1,-4,-1,0,-86.375,-86.375,-86.375,-16.6875,-16.6875,-16.6875,6.745845,5.153223,1.232948,3.395425,5.239271,5.134922,,,,,
-0.3041992,0.7866211,0.465332,-0.1269531,-0.8847656,0.6005859,-45,-16,0,-2,-11,-8,-8,-12,0,-2,-2,-2,2,0,-1,-1,-37.5,-37.5,-37.5,3.4375,3.4375,3.4375,6.646246,5.260481,1.213239,3.395534,5.212079,5.129584,,,,,
-0.3120117,0.8208008,0.4736328,-0.1513672,-0.8623047,0.5800781,7,-9,-1,-34,-17,0,1,9,-1,-1,1,2,-1,-5,1,2,-12.125,-12.125,-12.125,11.125,11.125,11.125,6.636981,5.294125,1.193582,3.402259,5.205947,5.125436,,,,,
-0.2548828,0.7324219,0.3876953,-0.184082,-0.862793,0.5458984,-8,-6,0,-2,-4,0,-2,5,-4,0,-1,2,-1,-1,2,-1,1.8125,1.8125,1.8125,10.625,10.625,10.625,6.628111,5.337128,1.141361,3.420653,5.21106,5.114154,,,,,
-0.1865234,0.8569336,0.4072266,-0.1879883,-0.8774414,0.5249023,-12,-22,-7,-11,-17,-6,-8,3,0,-1,0,4,4,3,1,1,71.125,71.125,71.125,9.5625,9.5625,9.5625,6.681721,5.344746,1.098504,3.428721,5.223955,5.112505,,,,,
-0.000976563,0.9941406,0.4951172,-0.1713867,-0.862793,0.5371094,0,-1,0,-6,-8,-4,0,-4,-1,2,-1,-3,-3,0,-5,-4,46.625,46.625,46.625,5.6875,5.6875,5.6875,6.751129,5.304179,1.079786,3.431305,5.229359,5.115505,,,,,
-0.1787109,0.8452148,0.6293945,-0.1386719,-0.8422852,0.527832,1,3,3,-4,-10,0,0,0,-2,-2,1,3,4,16,0,0,-46.9375,-46.9375,-46.9375,-1.6875,-1.6875,-1.6875,6.716066,5.262037,1.099372,3.430696,5.237111,5.125289,,,,,
-0.2509766,0.7485352,0.5400391,-0.08886719,-0.8676758,0.5688477,-3,2,-5,0,-5,-4,1,0,-2,-3,-8,-12,-4,-4,-3,-3,-6.1875,-6.1875,-6.1875,-3.1875,-3.1875,-3.1875,6.683697,5.256556,1.114669,3.427543,5.237379,5.137181,,,,,
-0.3076172,0.9135742,0.4448242,-0.1621094,-0.8466797,0.5385742,2,4,-5,-27,-41,-10,2,2,-2,0,-1,-3,-4,-1,3,-1,8.5625,8.5625,8.5625,10.9375,10.9375,10.9375,6.695189,5.26792,1.117005,3.437217,5.240674,5.139466,,,,,
-0.2680664,0.8930664,0.4501953,-0.1567383,-0.8188477,0.5673828,1,2,-4,21,8,-1,-5,0,-1,-1,-1,0,6,5,5,2,-2.375,-2.375,-2.375,-10.625,-10.625,-10.625,6.69509,5.272037,1.115006,3.431562,5.238513,5.137443,,,,,
-0.1894531,0.8876953,0.4975586,-0.1738281,-0.8598633,0.5649414,-2,1,4,9,5,-3,-2,0,1,0,1,-2,0,2,-5,-2,-8.25,-8.25,-8.25,2.9375,2.9375,2.9375,6.686131,5.272156,1.100356,3.428062,5.236407,5.129735,,,,,
-0.1689453,0.8632813,0.5009766,-0.1845703,-0.8071289,0.5341797,0,-1,-4,-10,22,0,-4,-3,2,-2,-1,-3,-4,-1,4,0,-5.25,-5.25,-5.25,5.5625,5.5625,5.5625,6.675944,5.267293,1.094757,3.435636,5.237534,5.125981,,,,,
-0.2270508,0.8637695,0.4702148,-0.1655273,-0.8334961,0.5673828,-2,-3,5,11,0,0,-14,3,-3,-2,-5,-8,-1,-7,-1,0,4.875,4.875,4.875,-5.625,-5.625,-5.625,6.678749,5.265813,1.091944,3.432067,5.237364,5.129648,,,,,
-0.3833008,1.012695,0.246582,-0.1489258,-0.8393555,0.5703125,1,6,-2,1,3,2,3,2,1,-1,0,2,-6,-6,1,3,11,11,11,3.6875,3.6875,3.6875,6.697026,5.273779,1.097508,3.434708,5.235108,5.13365,,,,,
0.234375,0.7236328,0.90625,-0.1333008,-0.8251953,0.5703125,-2,-5,-3,3,-5,1,0,-3,-2,0,-1,4,3,1,-1,-3,-10.875,-10.875,-10.875,1.875,1.875,1.875,6.650844,5.249905,1.094414,3.439158,5.232587,5.134564,,,,,
0.05517578,1.072266,0.222168,-0.1264648,-0.8251953,0.5654297,2,4,-2,6,0,0,0,-1,-3,-1,-1,-2,0,-1,-1,-2,-0.0625,-0.0625,-0.0625,2.8125,2.8125,2.8125,6.641047,5.256092,1.09107,3.441367,5.230096,5.130245,,,,,
-0.06787109,0.6884766,0.7197266,-0.1181641,-0.8032227,0.5610352,2,1,0,0,-1,-4,1,-1,-3,-2,-2,-2,-1,-3,-5,1,-14.875,-14.875,-14.875,5,5,5,6.604728,5.24968,1.077254,3.447641,5.223314,5.12796,,,,,
-0.1733398,0.7636719,0.4897461,-0.0703125,-0.7470703,0.5532227,0,-1,0,-2,-2,2,0,-3,1,0,-2,-1,-1,-2,-2,0,-10.1875,-10.1875,-10.1875,6,6,6,6.593337,5.231086,1.057796,3.456998,5.20164,5.138252,,,,,
-0.2021484,0.6699219,0.453125,-0.1074219,-0.6938477,0.4804688,0,-1,-1,0,-1,2,0,0,-2,-2,1,-1,-2,0,-1,-2,-7.1875,-7.1875,-7.1875,2.1875,2.1875,2.1875,6.577093,5.195606,1.022207,3.465517,5.158702,5.15723,,,,,
-0.07714844,0.6303711,0.4243164,-0.08544922,-0.6899414,0.465332,-3,-3,-4,-2,0,-1,-1,-5,-1,-1,-3,-2,-1,-4,1,-2,14.5625,14.5625,14.5625,-13.3125,-13.3125,-13.3125,6.582056,5.103504,0.9715479,3.456728,5.086432,5.195199,,,,,
0.01318359,0.715332,0.4267578,0.03320313,-0.7773438,0.5263672,-1,-2,0,1,-7,1,-1,0,-1,-4,-1,-1,-3,-2,-13,1,16.6875,16.6875,16.6875,-11.625,-11.625,-11.625,6.602055,4.947844,0.9267778,3.441054,4.971757,5.246434,,,,,
0.1147461,0.703125,0.4316406,0.06884766,-0.7509766,0.5083008,0,-3,-5,-6,0,-1,-1,-1,1,0,-1,0,-2,-2,5,0,-17.625,-17.625,-17.625,16.1875,16.1875,16.1875,6.599073,4.74237,0.8838648,3.44901,4.827567,5.29781,,,,,
0.1699219,0.6586914,0.4682617,0.1738281,-0.7177734,0.4921875,6,5,13,1,1,1,1,-3,0,-1,-2,0,-1,-1,0,-3,-5.5,-5.5,-5.5,-7.0625,-7.0625,-7.0625,6.600903,4.628726,0.8577797,3.445893,4.654008,5.360013,,,,,
0.4428711,0.8388672,0.4150391,0.3632813,-0.7382813,0.5024414,-3,-1,-3,-2,-2,-1,0,0,-4,0,0,-1,-11,1,3,1,43.625,43.625,43.625,-24.125,-24.125,-24.125,6.657485,4.383562,0.7931734,3.401172,4.457917,5.430149,,,,,
0.4057617,0.6948242,0.4140625,0.4848633,-0.8442383,0.4291992,-1,-3,-2,-1,-2,0,-3,0,-1,-1,-1,3,5,3,1,0,-45.9375,-45.9375,-45.9375,-9.875,-9.875,-9.875,6.657896,4.034275,0.7261497,3.358686,4.246042,5.49247,,,,,
0.847168,0.5283203,0.3139648,0.6523438,-0.6733398,0.4257813,1,-1,-1,0,-1,-2,0,-2,2,-1,-2,-5,-1,-2,-6,-1,26.5625,26.5625,26.5625,23.9375,23.9375,23.9375,6.719311,3.790859,0.6411901,3.346409,4.032025,5.556713,,,,,
1,0.6660156,0.3349609,0.6708984,-0.6162109,0.394043,-3,-1,0,0,1,-2,-1,0,0,0,-3,12,17,-1,-4,-1,47.625,47.625,47.625,-0.3125,-0.3125,-0.3125,6.778659,3.682008,0.5949302,3.302257,3.82802,5.638627,,,,,
0.8466797,0.7436523,0.2172852,0.8447266,-0.6220703,0.3530273,0,-1,-1,2,-3,0,-1,-1,-5,-1,-3,-14,-13,-5,-3,-2,-10.1875,-10.1875,-10.1875,-9,-9,-9,6.869028,3.479833,0.4931323,3.215639,3.626852,5.743941,,,,,
0.9667969,0.472168,0.2138672,0.9179688,-0.5732422,0.234375,3,1,1,-2,-1,-2,-1,4,2,-2,-2,-4,-5,-2,5,1,-24.625,-24.625,-24.625,17.1875,17.1875,17.1875,6.974665,3.287183,0.3339712,3.128432,3.439177,5.871331,,,,,
1.015625,0.4750977,0.1791992,0.9746094,-0.5258789,0.1513672,13,-1,0,-2,-1,0,0,2,-1,0,0,0,-6,-3,-1,1,-15.875,-15.875,-15.875,5.75,5.75,5.75,7.065689,3.201806,0.2220524,2.976211,3.266909,6.057648,,,,,
1.088379,0.418457,-0.06640625,1.055176,-0.5083008,0.09130859,-37,-6,-3,0,-3,-2,-1,-8,-2,-1,-1,1,-1,-1,-6,-1,-23.5625,-23.5625,-23.5625,25.375,25.375,25.375,7.456051,3.011103,9.773591,2.763981,3.124313,6.313735,,,,,
1.074219,0.3481445,-0.1425781,1.069824,-0.3574219,-0.0078125,-19,0,0,4,-1,-5,-2,-1,-1,-1,-1,-3,-2,0,-4,-2,-23.75,-23.75,-23.75,50.9375,50.9375,50.9375,7.728753,2.94194,9.462313,2.529471,3.022811,6.619612,,,,,
1.040039,0.2919922,-0.1254883,1.059082,-0.2939453,-0.08789063,4,0,-2,4,-2,-2,1,2,1,1,-1,-3,0,-2,-6,-2,-3.1875,-3.1875,-3.1875,35.125,35.125,35.125,7.934441,2.89905,9.240149,2.291335,2.961569,6.915943,,,,,
1.006836,0.2895508,-0.05712891,1.021973,-0.3041992,-0.05615234,29,0,-1,-1,0,0,1,-1,3,-2,1,-6,-2,-1,1,0,25,25,25,12.5625,12.5625,12.5625,8.015331,2.872585,9.177135,2.114768,2.928436,7.12084,,,,,
0.9404297,0.3378906,0.02832031,1.021973,-0.3256836,-0.02441406,14,0,-2,-4,-1,-3,0,-24,-2,-2,-3,-2,-2,-2,2,-1,34.5625,34.5625,34.5625,6.375,6.375,6.375,7.961997,2.8571,9.269258,2.066446,2.917485,7.175243,,,,,
0.8730469,0.3828125,0.08935547,0.9667969,-0.3730469,0.04541016,-19,-1,-1,-1,-3,-3,-1,-3,-3,-4,-2,0,-2,-6,-22,-1,25,25,25,14.9375,14.9375,14.9375,7.845922,2.854351,9.418449,2.104074,2.904738,7.157786,,,,,
0.8574219,0.387207,0.09912109,0.9204102,-0.3647461,0.1142578,-4,-1,0,-2,-1,0,-3,2,-7,1,-1,2,-1,1,2,3,-3.9375,-3.9375,-3.9375,18.4375,18.4375,18.4375,7.74042,2.861731,9.528487,2.223548,2.908586,7.059253,,,,,
0.8520508,0.3588867,0.08056641,0.8959961,-0.3852539,0.1044922,15,5,0,-3,-4,-2,0,7,-1,-2,-1,0,0,-1,4,-4,-14.3125,-14.3125,-14.3125,15.5,15.5,15.5,7.704144,2.865776,9.556458,2.280679,2.914687,7.010609,,,,,
0.9150391,0.293457,-0.000976563,0.8916016,-0.3881836,0.08105469,8,-2,-3,-1,-1,-1,1,-2,-2,-5,-1,-4,-1,-1,-6,0,-28.3125,-28.3125,-28.3125,22.9375,22.9375,22.9375,7.640576,2.883503,9.57755,2.373888,2.934647,6.939937,,,,,
0.9516602,0.2290039,-0.05029297,0.9223633,-0.3505859,0.03320313,2,-3,-1,1,1,-2,-2,2,-1,0,-2,-4,-1,0,-1,-3,-5.6875,-5.6875,-5.6875,32.25,32.25,32.25,7.62157,2.892007,9.583116,2.455689,2.96051,6.890998,,,,,
0.9516602,0.2290039,-0.05029297,0.9404297,-0.3325195,0.01513672,2,-3,-1,1,1,-2,-2,2,-1,0,-2,-4,-1,0,-1,-3,-5.6875,-5.6875,-5.6875,35,35,35,7.62157,2.892007,9.583116,2.495571,2.973396,6.869851,,,,,
0.9892578,0.2573242,-0.05615234,0.9428711,-0.3222656,0.00390625,-34,-7,-4,-2,1,1,-4,-4,1,-3,-1,-1,0,0,-2,1,7.75,7.75,7.75,34.3125,34.3125,34.3125,7.608133,2.905194,9.604988,2.532895,2.986377,6.850827,,,,,
0.9638672,0.25,-0.04833984,0.9716797,-0.3056641,-0.02978516,21,3,1,2,1,0,0,1,1,-2,-1,-2,-2,-1,0,5,2.5,2.5,2.5,25.3125,25.3125,25.3125,7.569645,2.919909,9.650546,2.591109,3.012561,6.821147,,,,,
0.9423828,0.2387695,-0.03222656,0.9760742,-0.300293,-0.04785156,2,-2,-1,28,0,2,3,-4,-2,-3,0,1,-2,-1,1,2,4.4375,4.4375,4.4375,10.0625,10.0625,10.0625,7.52725,2.934933,9.699316,2.667706,3.051496,6.763716,,,,,
