ALX,ALY,ALZ,ARX,ARY,ARZ,EMG0L,EMG1L,EMG2L,EMG3L,EMG4L,EMG5L,EMG6L,EMG7L,EMG0R,EMG1R,EMG2R,EMG3R,EMG4R,EMG5R,EMG6R,EMG7R,GLX,GLY,GLZ,GRX,GRY,GRZ,ORL,OPL,OYL,ORR,OPR,OYR
0.9414063,0.309082,0.003417969,0.9511719,-0.5927734,0.02539063,1,8,-3,0,-1,0,-2,0,-2,-1,6,1,-3,-5,-5,0,-1,-1,-1,-1.6875,-1.6875,-1.6875,7.47697,2.989704,9.701321,2.719332,3.135126,6.512171
0.9384766,0.362793,-0.04052734,1.004395,-0.4682617,0.005371094,0,0,-3,1,-2,-1,0,-4,-1,-3,3,1,8,0,-6,-2,-14.375,-14.375,-14.375,23.4375,23.4375,23.4375,7.465801,3.000369,9.702834,2.766247,3.181163,6.486602
0.9848633,0.3149414,-0.01904297,0.9746094,-0.4814453,0.1044922,0,-1,-9,-5,-1,-1,-2,4,-3,0,0,5,3,-3,0,-2,-28.6875,-28.6875,-28.6875,5.875,5.875,5.875,7.41835,3.021106,9.719444,2.840827,3.237549,6.414871
0.9804688,0.390625,0.004394531,0.9926758,-0.5068359,0.1870117,2,4,14,4,4,-1,1,2,-3,0,-3,-2,-15,-1,0,-2,-9.6875,-9.6875,-9.6875,-7.5,-7.5,-7.5,7.345852,3.057486,9.779804,2.93161,3.317356,6.307081
1.048828,0.4160156,0.08007813,0.9702148,-0.5219727,0.2124023,0,0,-19,-2,2,0,3,1,-3,-2,-20,-33,-50,-1,-3,-1,-18.125,-18.125,-18.125,-14.625,-14.625,-14.625,7.220474,3.123149,9.894922,2.981514,3.366018,6.241025
1.076172,0.4077148,0.1459961,0.9711914,-0.5634766,0.2944336,-1,-13,-15,-8,-4,-3,14,2,-2,-3,-17,-3,-8,-2,0,-4,-6.1875,-6.1875,-6.1875,-20.5,-20.5,-20.5,7.140279,3.167332,9.977511,3.08057,3.483336,6.098197
1.093262,0.4926758,0.2304688,0.8725586,-0.6552734,0.3955078,0,-21,-21,-20,3,6,1,3,-2,1,-1,6,-9,-14,-2,-2,33.0625,33.0625,33.0625,-36.625,-36.625,-36.625,6.999487,3.294255,0.1600045,3.160215,3.631495,5.954473
0.9575195,0.7246094,0.347168,0.7558594,-0.7636719,0.4428711,-5,0,-3,9,-2,-2,14,0,0,-5,-1,9,8,-13,-1,-2,23.0625,23.0625,23.0625,-19.5625,-19.5625,-19.5625,6.887087,3.475483,0.3308998,3.234334,3.804296,5.809452
0.8212891,0.7324219,0.4916992,0.5683594,-0.6713867,0.5,-3,5,0,-7,-23,-14,0,0,-4,-2,-6,-25,-12,-1,-1,1,-15.375,-15.375,-15.375,7.5,7.5,7.5,6.765511,3.691675,0.4778127,3.332617,3.991854,5.658484
0.6669922,0.6723633,0.5195313,0.4750977,-0.6582031,0.5126953,5,7,6,-25,-5,-1,-24,0,-2,-5,-11,-19,-49,-3,-4,-4,-29.625,-29.625,-29.625,6.6875,6.6875,6.6875,6.703801,3.812315,0.540473,3.374314,4.093281,5.593019
0.6669922,0.6723633,0.5195313,0.3764648,-0.6860352,0.5361328,-2,6,11,-5,-2,-1,0,-4,0,0,-7,4,-9,-14,-4,-3,-29.625,-29.625,-29.625,-6.1875,-6.1875,-6.1875,6.703801,3.812315,0.540473,3.428835,4.297251,5.472965
0.3393555,0.6665039,0.5117188,0.3217773,-0.6831055,0.5219727,-3,-2,2,39,-35,-8,4,-5,-3,-4,1,-4,-3,9,-1,0,-4.0625,-4.0625,-4.0625,1.3125,1.3125,1.3125,6.60259,4.19578,0.6811998,3.452393,4.399078,5.417199
0.1455078,0.6450195,0.4697266,0.2001953,-0.7182617,0.4829102,1,1,3,11,-28,-6,0,0,1,-1,-2,4,-7,-6,-2,3,2.625,2.625,2.625,0.3125,0.3125,0.3125,6.560927,4.564342,0.7862287,3.486557,4.596258,5.316431
0.06152344,0.699707,0.4545898,0.144043,-0.6352539,0.2099609,0,-3,7,-6,-16,-2,-4,13,0,-2,-3,19,5,-13,6,0,12.3125,12.3125,12.3125,2.875,2.875,2.875,6.560726,4.772211,0.8417531,3.509902,4.851718,5.198584
0.08007813,0.6943359,0.4692383,-0.07128906,-0.7324219,0.4936523,4,6,7,7,-13,-4,-13,-3,-2,1,7,10,1,-6,-2,4,10,10,10,-1.375,-1.375,-1.375,6.563435,4.860382,0.8666441,3.510378,4.923565,5.174762
-0.01904297,0.7407227,0.4633789,0.03320313,-0.7260742,0.496582,1,0,-4,10,22,3,2,-5,-1,-2,-2,1,5,0,-3,-3,18.625,18.625,18.625,-11.125,-11.125,-11.125,6.578733,5.004155,0.9142856,3.50188,5.040026,5.139051
-0.01806641,0.7612305,0.503418,0.05615234,-0.8120117,0.5576172,1,0,-6,-3,-12,-2,3,1,1,0,21,27,1,1,1,-2,19.875,19.875,19.875,-11.6875,-11.6875,-11.6875,6.589577,5.055542,0.9339143,3.484696,5.109433,5.114651
-0.01513672,0.7885742,0.5214844,-0.02978516,-0.7705078,0.5834961,3,18,19,19,3,-1,-4,-1,0,-1,-7,-13,-13,-11,-3,-4,25.4375,25.4375,25.4375,5.625,5.625,5.625,6.622496,5.149584,0.981181,3.488927,5.158198,5.101968
-0.05078125,0.855957,0.512207,0.02490234,-0.7744141,0.5083008,-6,-12,-43,-11,-5,-3,-6,-1,-1,-1,-2,-15,-2,-12,-3,-2,14.8125,14.8125,14.8125,-13.1875,-13.1875,-13.1875,6.647926,5.178414,1.010595,3.479642,5.181399,5.102176
-0.05078125,0.8388672,0.5292969,0.01171875,-0.7944336,0.5976563,-3,-5,-5,-14,-8,-3,-2,-1,0,2,14,8,0,-2,0,-1,11.5,11.5,11.5,-18.0625,-18.0625,-18.0625,6.654737,5.184203,1.025176,3.471044,5.184722,5.101645
-0.02294922,0.8320313,0.6728516,-0.06201172,-0.8183594,0.6328125,1,0,-2,-29,-7,-4,-2,1,-2,-1,1,1,1,-7,-5,-1,0.6875,0.6875,0.6875,-1.1875,-1.1875,-1.1875,6.652844,5.198025,1.043859,3.467291,5.19406,5.09179
-0.6044922,0.875,0.581543,-0.1713867,-0.7768555,0.5673828,-2,-7,-1,8,6,2,-3,0,0,-2,1,5,3,4,-3,-4,12.875,12.875,12.875,4.5,4.5,4.5,6.657915,5.232201,1.046579,3.475237,5.206326,5.079637
0.05419922,0.8452148,0.5488281,-0.1884766,-0.859375,0.5991211,-4,10,-7,-3,-6,-4,-6,-14,0,-1,-3,0,-4,-4,-1,3,30.8125,30.8125,30.8125,-6.5625,-6.5625,-6.5625,6.660135,5.245941,1.025926,3.469038,5.216712,5.07236
-0.3491211,0.8959961,0.4296875,-0.1938477,-0.7958984,0.5893555,2,-4,-2,2,-1,2,0,12,1,-1,-4,-8,-4,-3,0,-2,18.3125,18.3125,18.3125,9.375,9.375,9.375,6.670578,5.269008,1.01028,3.475779,5.229978,5.067415
-0.2412109,0.7363281,0.4614258,-0.2504883,-0.8461914,0.5263672,6,0,-1,-1,4,11,4,35,-4,-4,-11,-7,0,14,-1,-2,10.75,10.75,10.75,6.625,6.625,6.625,6.672081,5.298654,0.9815298,3.477185,5.239642,5.068443
-0.1855469,0.7294922,0.46875,-0.2128906,-0.8549805,0.5673828,1,-2,-7,-15,24,-10,-8,-11,-1,-2,-1,-3,-3,-8,-1,-5,9.125,9.125,9.125,6.75,6.75,6.75,6.669619,5.272278,0.9530376,3.481209,5.276374,5.081825
-0.04541016,0.8505859,0.4394531,-0.1879883,-0.7910156,0.5585938,1,2,2,6,4,0,-13,-26,-2,-2,-4,-1,0,-2,0,0,74.125,74.125,74.125,-7.8125,-7.8125,-7.8125,6.722692,5.222646,0.9140508,3.477211,5.29735,5.09248
-0.04541016,0.8505859,0.4394531,-0.1796875,-0.8125,0.5380859,-2,-20,-12,-4,4,-8,5,-10,0,0,0,-2,-2,4,-3,0,74.125,74.125,74.125,-9.0625,-9.0625,-9.0625,6.722692,5.222646,0.9140508,3.468291,5.306198,5.110126
-0.08154297,0.9208984,0.5366211,-0.1630859,-0.7827148,0.5400391,-7,24,14,-2,-17,2,-10,1,-1,-1,-4,-6,-6,-3,-2,-6,-26.75,-26.75,-26.75,-12.5,-12.5,-12.5,6.772144,5.129245,0.9290769,3.459808,5.300591,5.125666
0.02392578,0.90625,0.4301758,-0.1708984,-0.8276367,0.5551758,2,-2,3,10,-8,6,16,11,-2,-4,-9,-9,1,6,1,-1,19.5625,19.5625,19.5625,-13.6875,-13.6875,-13.6875,6.784321,5.085854,0.9720477,3.446805,5.281953,5.136519
-0.1186523,1.108887,0.6005859,-0.1235352,-0.8056641,0.5864258,-16,-65,5,7,-7,-5,0,0,-1,1,1,-1,-6,-9,-5,-3,-1.9375,-1.9375,-1.9375,-9.9375,-9.9375,-9.9375,6.782199,5.078609,0.9979957,3.439337,5.254018,5.145341
-0.2128906,0.796875,0.5712891,-0.1201172,-0.8378906,0.6083984,14,-3,-1,7,2,-2,-2,6,-1,-3,-3,0,-5,-9,-2,-2,-79.1875,-79.1875,-79.1875,-6.1875,-6.1875,-6.1875,6.645948,5.129308,1.048825,3.433965,5.229158,5.145869
-0.3544922,0.809082,0.4736328,-0.1665039,-0.8442383,0.6049805,23,6,3,-1,6,-4,1,1,1,2,2,1,3,15,-1,-2,-22.5,-22.5,-22.5,4.5625,4.5625,4.5625,6.606212,5.210329,1.035702,3.437977,5.216381,5.139138
-0.3510742,0.8447266,0.4663086,-0.1923828,-0.824707,0.5834961,4,-3,-4,-9,1,6,-12,3,-1,-2,1,-2,-2,-5,0,-1,-14.5625,-14.5625,-14.5625,4.0625,4.0625,4.0625,6.597769,5.249797,1.017275,3.44402,5.217786,5.130702
-0.2436523,0.7143555,0.4477539,-0.1977539,-0.8383789,0.5561523,1,8,3,56,6,-6,-20,-4,-2,-2,-2,0,2,3,0,-2,15.25,15.25,15.25,5.75,5.75,5.75,6.586336,5.316449,0.9307199,3.448861,5.228095,5.125945
-0.1206055,0.8813477,0.4038086,-0.168457,-0.8432617,0.5556641,-34,2,12,-11,-2,-7,0,-7,-2,-2,-1,-5,-4,-4,-5,-2,71.8125,71.8125,71.8125,4.5625,4.5625,4.5625,6.651035,5.321842,0.8832683,3.453802,5.237679,5.126889
-0.06298828,0.9609375,0.5258789,-0.1547852,-0.8364258,0.546875,4,12,6,36,0,-2,-3,2,-2,-3,-1,-4,-5,0,0,2,49.375,49.375,49.375,3.4375,3.4375,3.4375,6.677518,5.308392,0.8746716,3.455244,5.241241,5.128845
-0.2319336,0.7441406,0.6083984,-0.1318359,-0.8681641,0.5932617,0,14,2,6,10,5,10,-3,1,0,1,0,-2,1,1,5,-19.8125,-19.8125,-19.8125,-1.625,-1.625,-1.625,6.649549,5.258202,0.9007437,3.449869,5.241812,5.135315
-0.262207,0.8862305,0.4785156,-0.1547852,-0.7988281,0.5683594,3,5,4,13,-17,2,2,3,-1,-1,-6,-4,-2,-3,9,1,-1.8125,-1.8125,-1.8125,3.125,3.125,3.125,6.647337,5.252773,0.908547,3.455841,5.243745,5.139482
-0.2587891,0.8525391,0.4785156,-0.1738281,-0.8212891,0.5620117,-3,-9,-3,-26,-4,1,-4,-3,-1,-3,0,0,-1,4,-3,-1,5.875,5.875,5.875,-6,-6,-6,6.650919,5.258503,0.9013132,3.451759,5.243798,5.137691
-0.2172852,0.878418,0.5146484,-0.1894531,-0.8369141,0.5673828,-3,-12,-3,9,21,-1,-2,-1,-1,-3,-4,-4,-2,-1,1,-3,-2.1875,-2.1875,-2.1875,0.8125,0.8125,0.8125,6.65297,5.257989,0.8970304,3.449969,5.242809,5.133479
-0.1850586,0.8237305,0.5161133,-0.1513672,-0.8193359,0.5556641,-9,-7,4,1,2,-3,-3,4,-2,-1,-2,-2,2,-1,-3,-2,-4,-4,-4,-2.9375,-2.9375,-2.9375,6.644181,5.255232,0.8939403,3.44921,5.240717,5.135641
-0.1811523,0.8457031,0.5200195,-0.1552734,-0.8369141,0.5878906,-1,-3,-5,-7,-21,-6,-1,-1,0,-3,0,0,1,1,-1,0,5.3125,5.3125,5.3125,-5.0625,-5.0625,-5.0625,6.646336,5.25453,0.8934091,3.444579,5.238433,5.140141
-0.2006836,0.8881836,0.5112305,-0.1420898,-0.8076172,0.5810547,0,0,-5,3,3,-2,-1,-2,-1,0,0,-2,1,1,-4,0,-5.6875,-5.6875,-5.6875,2.75,2.75,2.75,6.649943,5.251059,0.8951102,3.448707,5.235535,5.143209
-0.1870117,0.8520508,0.5131836,-0.1337891,-0.7885742,0.5737305,-1,-7,-1,-5,4,1,-1,-4,-3,-1,-1,-3,-1,-2,-1,-1,2.25,2.25,2.25,1.9375,1.9375,1.9375,6.64881,5.251955,0.8940049,3.45409,5.231944,5.145594
-0.1870117,0.8554688,0.5097656,-0.109375,-0.7827148,0.5751953,0,-4,-2,-15,0,-2,1,-1,-1,-1,-2,-1,-2,-1,1,-1,2.625,2.625,2.625,0.4375,0.4375,0.4375,6.649958,5.253073,0.8923042,3.455916,5.226593,5.14783
-0.1801758,0.7749023,0.4995117,-0.1098633,-0.7402344,0.5073242,-3,-6,-3,0,-2,-2,-3,-5,1,-2,2,-1,-1,0,-3,-1,-5.25,-5.25,-5.25,4.125,4.125,4.125,6.638722,5.250712,0.8831616,3.46457,5.191415,5.160838
-0.1728516,0.7646484,0.4736328,-0.08447266,-0.7407227,0.4941406,-2,0,1,-1,-2,-2,-1,-2,-1,-1,-5,-10,-2,-3,-4,-3,-5,-5,-5,-0.625,-0.625,-0.625,6.634435,5.243582,0.8757463,3.464687,5.166516,5.170314
-0.2167969,0.7202148,0.4541016,-0.05517578,-0.7416992,0.5351563,1,-2,-1,1,0,1,-1,3,0,-1,-2,-2,0,-2,3,2,-6.5625,-6.5625,-6.5625,11.3125,11.3125,11.3125,6.623143,5.214748,0.848555,3.475426,5.09657,5.193815
-0.05761719,0.6757813,0.4384766,-0.03662109,-0.7045898,0.5180664,1,1,0,-7,-2,-6,1,2,1,0,-1,-1,0,3,10,3,-15.1875,-15.1875,-15.1875,-1.6875,-1.6875,-1.6875,6.600497,5.06893,0.7915145,3.48301,5.006332,5.233083
-0.06152344,0.6669922,0.4492188,0.01757813,-0.7402344,0.5063477,14,-1,-3,-18,-4,-2,0,-1,-1,0,-1,1,-2,-2,8,-1,-15.4375,-15.4375,-15.4375,-26.6875,-26.6875,-26.6875,6.59142,4.992723,0.7722133,3.456377,4.887957,5.286857
0.1005859,0.7143555,0.4448242,0.09228516,-0.8569336,0.46875,18,-1,-2,-3,-1,1,-1,2,-2,-1,1,-2,0,-1,5,0,0.9375,0.9375,0.9375,-17.0625,-17.0625,-17.0625,6.59013,4.805016,0.7252837,3.424223,4.73672,5.346134
0.1933594,0.684082,0.4926758,0.2758789,-0.7226563,0.5029297,9,0,-3,-3,-2,-2,0,2,1,-1,1,-2,-9,-2,-2,-5,-10.6875,-10.6875,-10.6875,30,30,30,6.588177,4.702008,0.6974924,3.433901,4.563239,5.403206
0.4482422,0.6821289,0.4091797,0.3925781,-0.5927734,0.4643555,2,1,0,3,0,-1,-1,2,-3,-2,4,1,-1,-2,0,0,36,36,36,-17.3125,-17.3125,-17.3125,6.637729,4.36187,0.6189131,3.409652,4.363517,5.464529
0.5795898,0.7446289,0.4477539,0.5571289,-0.7509766,0.4824219,-2,0,0,5,1,-2,1,3,-2,-1,-4,-1,2,-3,-23,-5,16.4375,16.4375,16.4375,-33.1875,-33.1875,-33.1875,6.678947,4.127877,0.5831555,3.343826,4.160958,5.528202
0.5795898,0.7446289,0.4477539,0.5571289,-0.7509766,0.4824219,-2,0,0,5,1,-2,1,3,-2,-1,-4,-1,2,-3,-23,-5,16.4375,16.4375,16.4375,-33.1875,-33.1875,-33.1875,6.678947,4.127877,0.5831555,3.343826,4.160958,5.528202
0.5380859,0.7001953,0.4384766,0.6660156,-0.7597656,0.3979492,-42,-6,-1,26,2,0,-1,-3,0,0,-1,0,1,0,-1,-1,17.25,17.25,17.25,-25.625,-25.625,-25.625,6.698711,4.008185,0.5640619,3.272791,3.957966,5.604185
0.8706055,0.65625,0.3608398,0.8208008,-0.7075195,0.3691406,-7,-1,-1,7,-1,-6,-1,-1,-1,-2,-2,0,-1,-1,2,1,37.0625,37.0625,37.0625,29.5,29.5,29.5,6.825438,3.649366,0.4633128,3.236439,3.762567,5.686915
0.9350586,0.5957031,0.2353516,0.809082,-0.5444336,0.2963867,-8,-1,0,2,-3,1,0,-2,-2,-2,-3,-6,-4,-4,-6,-5,18.125,18.125,18.125,23.75,23.75,23.75,6.954082,3.431725,0.3362933,3.189662,3.578261,5.79149
1.053711,0.5600586,0.1523438,0.9570313,-0.5737305,0.2314453,9,1,-2,3,0,1,2,1,-1,-2,1,-5,-6,-1,4,-2,11.25,11.25,11.25,5.75,5.75,5.75,7.029133,3.331061,0.2558075,3.089101,3.408879,5.92826
1.106934,0.4423828,-0.004882813,0.9951172,-0.5444336,0.1484375,1,0,-1,-2,0,-2,-2,1,1,-1,-2,-3,-2,-2,-3,-1,-13,-13,-13,20,20,20,7.310394,3.089679,9.936646,2.9701,3.264753,6.085987
1.118652,0.3891602,-0.06982422,1.017578,-0.4501953,0.07519531,-1,2,0,2,-1,-2,-3,0,-2,-1,-2,-2,-4,-2,-7,0,-15.875,-15.875,-15.875,24.5625,24.5625,24.5625,7.551986,2.991889,9.664148,2.827452,3.150454,6.272826
1.075684,0.3911133,-0.1225586,1.025391,-0.3979492,0.03515625,5,1,0,1,-1,-2,1,-3,-1,0,-1,-2,-3,-3,-1,0,-14.9375,-14.9375,-14.9375,14.8125,14.8125,14.8125,7.660151,2.962442,9.543063,2.662653,3.066555,6.470885
0.9658203,0.331543,-0.06152344,0.9990234,-0.3823242,0.02978516,1,-1,-2,0,-5,-5,1,3,-1,-1,1,2,-3,-2,-2,-1,2.1875,2.1875,2.1875,11.875,11.875,11.875,7.843678,2.907212,9.342104,2.523347,3.01178,6.633451
0.9169922,0.3833008,0.01855469,1.010742,-0.3798828,0.03222656,-3,-3,-1,-2,-1,1,-1,-3,-1,-1,-4,-3,-2,-3,-1,-3,17.5,17.5,17.5,12.5625,12.5625,12.5625,7.86937,2.893874,9.332584,2.436112,2.978922,6.739801
0.8950195,0.4174805,0.05615234,0.9765625,-0.3774414,0.06054688,2,0,0,1,0,1,-1,-4,0,-1,-1,4,-3,1,-1,-2,6.3125,6.3125,6.3125,7.5625,7.5625,7.5625,7.853038,2.893797,9.351968,2.409312,2.960367,6.781092
0.8828125,0.3574219,0.08154297,0.9316406,-0.3754883,0.06298828,1,2,1,0,-4,-6,1,-1,1,0,0,4,-2,-2,2,2,-31,-31,-31,9.1875,9.1875,9.1875,7.782516,2.902204,9.383602,2.423811,2.953766,6.778134
0.8886719,0.3193359,0.04345703,0.9145508,-0.3886719,0.1044922,-1,0,0,-1,-1,1,0,-3,0,0,-3,-3,-1,-2,-1,-1,-33.375,-33.375,-33.375,16.125,16.125,16.125,7.76457,2.910261,9.361429,2.461061,2.960649,6.756571
0.9072266,0.3208008,-0.006347656,0.9072266,-0.3496094,0.04638672,-5,-2,-1,-1,-2,0,0,-1,-4,-2,-1,-1,-1,2,-2,-4,-30.5625,-30.5625,-30.5625,28.75,28.75,28.75,7.763952,2.9161,9.343809,2.50159,2.970202,6.747538
0.9438477,0.2734375,-0.03417969,0.9140625,-0.3330078,0.05859375,-13,-3,-3,-2,-2,1,-1,-4,-2,-1,-1,-3,-1,-3,0,-2,-19.1875,-19.1875,-19.1875,21.625,21.625,21.625,7.755284,2.930516,9.31199,2.546162,2.984142,6.729361
0.9526367,0.2358398,-0.04931641,0.9404297,-0.3227539,0.02441406,3,-1,-2,-2,2,4,-5,-3,-2,-3,-2,-3,-1,-1,-2,0,-2.4375,-2.4375,-2.4375,18.3125,18.3125,18.3125,7.745916,2.937436,9.31405,2.577329,2.999212,6.719448
0.9501953,0.2456055,-0.04003906,0.9628906,-0.3051758,-0.00390625,-6,0,-1,-4,-1,-2,-2,-1,1,-1,0,-2,-1,-2,0,-1,4.75,4.75,4.75,17.25,17.25,17.25,7.73755,2.942302,9.324967,2.607305,3.014294,6.708023
0.9482422,0.2783203,-0.04541016,0.9755859,-0.2900391,-0.01757813,-7,-1,-1,-1,1,-5,-2,0,-1,-2,-2,-2,-2,-2,-3,-2,6.5625,6.5625,6.5625,13.1875,13.1875,13.1875,7.702523,2.960819,9.376652,2.642696,3.0284,6.68681
0.9448242,0.2475586,-0.01953125,0.9648438,-0.2983398,-0.01660156,0,-1,0,0,-1,-5,-4,-3,0,-2,-2,0,-1,-2,0,-2,1.0625,1.0625,1.0625,4.125,4.125,4.125,7.655546,2.970782,9.427921,2.675309,3.042933,6.658365
0.9335938,0.2304688,-0.01074219,0.9619141,-0.3076172,-0.00390625,-24,-4,-1,0,-1,-1,-1,-5,0,0,-3,-3,-1,0,-1,1,7.625,7.625,7.625,1.4375,1.4375,1.4375,7.610548,2.976882,9.480638,2.693017,3.050616,6.639833
0.9335938,0.2583008,0.005859375,0.9404297,-0.3222656,0.04443359,9,0,0,1,0,0,0,1,-2,-2,-2,-2,-1,-2,-1,1,10.4375,10.4375,10.4375,-4.1875,-4.1875,-4.1875,7.575425,2.982879,9.529134,2.742062,3.069738,6.583357
0.9326172,0.2792969,0.01123047,0.934082,-0.324707,0.03125,2,-2,0,0,-1,-2,0,-1,-1,-2,-1,-1,0,-2,-1,0,4.6875,4.6875,4.6875,-3.5,-3.5,-3.5,7.544371,2.98921,9.568039,2.761755,3.07845,6.557743
0.9360352,0.2885742,0.001953125,0.9311523,-0.3120117,0.0390625,-8,-1,-1,-2,-2,-1,-1,3,-2,-1,-1,1,0,-2,-3,2,-0.25,-0.25,-0.25,-7.9375,-7.9375,-7.9375,7.530471,2.992262,9.582569,2.775285,3.081752,6.535051
0.9243164,0.2714844,-0.002929688,0.9287109,-0.3217773,0.04248047,-4,-2,-1,-1,-1,-3,0,-2,-1,-2,-3,-1,-1,-2,-3,-1,-4.9375,-4.9375,-4.9375,-13.25,-13.25,-13.25,7.505705,2.996864,9.603514,2.778824,3.082453,6.523203
