ALX,ALY,ALZ,ARX,ARY,ARZ,EMG0L,EMG1L,EMG2L,EMG3L,EMG4L,EMG5L,EMG6L,EMG7L,EMG0R,EMG1R,EMG2R,EMG3R,EMG4R,EMG5R,EMG6R,EMG7R,GLX,GLY,GLZ,GRX,GRY,GRZ,ORL,OPL,OYL,ORR,OPR,OYR,,,,,,,,,,,,,,
0.9814453,0.3813477,0.046875,1.007324,-0.4223633,0.1533203,1,-1,3,0,1,-1,1,1,1,1,3,51,80,24,5,1,8.625,8.625,8.625,-13.3125,-13.3125,-13.3125,7.316889,3.073625,8.334209,2.93582,3.206356,6.044673,,,,,,,,,,,,,,
0.9907227,0.4179688,0.08691406,0.9702148,-0.53125,0.2441406,-2,-3,5,0,-3,-3,1,-2,-3,-2,0,6,-4,-11,-1,0,14.875,14.875,14.875,-22.625,-22.625,-22.625,7.224041,3.127583,8.446896,3.091062,3.338809,5.83003,,,,,,,,,,,,,,
1.005859,0.453125,0.1118164,0.9169922,-0.5615234,0.2963867,-1,-23,-32,7,-2,0,-8,-2,0,-1,-6,-14,-19,0,-3,1,15.0625,15.0625,15.0625,-20.25,-20.25,-20.25,7.169983,3.16573,8.514406,3.142833,3.397372,5.75783,,,,,,,,,,,,,,
1.008789,0.5981445,0.2441406,0.815918,-0.628418,0.3793945,2,12,6,1,0,5,6,-2,0,4,21,12,4,0,-1,0,2.1875,2.1875,2.1875,-10.6875,-10.6875,-10.6875,6.989469,3.338718,8.73379,3.233433,3.529075,5.627126,,,,,,,,,,,,,,
0.8666992,0.6113281,0.3173828,0.7202148,-0.7006836,0.434082,-5,-9,-4,-29,-6,1,2,-4,0,1,2,-16,-31,-10,-1,-1,-17.3125,-17.3125,-17.3125,1.9375,1.9375,1.9375,6.866004,3.500147,8.863307,3.318126,3.685067,5.515513,,,,,,,,,,,,,,
0.7416992,0.6811523,0.4316406,0.6259766,-0.637207,0.4628906,-3,-21,4,-19,-15,-2,0,-2,-2,0,4,-10,-44,-22,-2,-2,7.375,7.375,7.375,11.4375,11.4375,11.4375,6.795991,3.694666,8.955873,3.403385,3.852745,5.41364,,,,,,,,,,,,,,
0.5849609,0.8256836,0.4516602,0.5454102,-0.6640625,0.5195313,5,26,27,7,-1,1,0,-2,-3,-2,-8,-12,-2,-8,-5,-4,-5.0625,-5.0625,-5.0625,14.625,14.625,14.625,6.745784,3.91555,9.03104,3.474344,4.032423,5.321383,,,,,,,,,,,,,,
0.453125,0.6538086,0.4633789,0.4174805,-0.6660156,0.5063477,-1,-1,6,74,32,1,4,3,-2,3,7,10,12,-25,-4,0,-23.4375,-23.4375,-23.4375,8.3125,8.3125,8.3125,6.680742,4.144924,9.099287,3.526696,4.220968,5.242923,,,,,,,,,,,,,,
0.2651367,0.6899414,0.4511719,0.3588867,-0.6899414,0.5385742,2,8,4,2,2,3,4,-2,-3,0,3,-3,-13,2,-3,-4,8.1875,8.1875,8.1875,12,12,12,6.661212,4.373258,9.147125,3.566588,4.402408,5.17601,,,,,,,,,,,,,,
0.1860352,0.75,0.4228516,0.2875977,-0.690918,0.5263672,-1,-10,-27,-11,-1,-1,1,2,-1,0,3,4,7,15,2,1,6.375,6.375,6.375,8.0625,8.0625,8.0625,6.660409,4.578368,9.177427,3.592782,4.570494,5.12394,,,,,,,,,,,,,,
0.1723633,0.7216797,0.4443359,0.2226563,-0.7001953,0.5327148,1,3,12,9,3,-2,-2,1,-1,-2,-1,2,0,4,0,-2,2.875,2.875,2.875,-2.3125,-2.3125,-2.3125,6.659279,4.751346,9.195372,3.600764,4.714701,5.084054,,,,,,,,,,,,,,
0.08056641,0.7851563,0.4282227,0.1381836,-0.7514648,0.6132813,-3,-4,-4,-15,0,1,4,-2,-3,-4,-3,-5,3,-7,-6,-4,12.1875,12.1875,12.1875,-7.5625,-7.5625,-7.5625,6.671279,4.889726,9.201983,3.597036,4.834049,5.058338,,,,,,,,,,,,,,
0.06884766,0.7680664,0.4716797,0.1171875,-0.7636719,0.5625,3,2,1,7,44,8,6,8,-2,-2,2,-2,4,-4,-1,-1,17.1875,17.1875,17.1875,-0.75,-0.75,-0.75,6.687724,4.983891,9.201185,3.594561,4.925829,5.044521,,,,,,,,,,,,,,
0.08740234,0.8115234,0.4853516,0.07958984,-0.7436523,0.6186523,1,-6,7,12,2,-2,-9,1,-4,-3,2,-5,5,11,-10,-6,16.75,16.75,16.75,-13.0625,-13.0625,-13.0625,6.705381,5.044965,9.20245,3.583074,4.996232,5.034518,,,,,,,,,,,,,,
-0.1416016,0.8574219,0.425293,0.005859375,-0.7695313,0.6079102,0,6,1,5,-5,0,0,-3,2,0,-2,-3,-3,-10,-2,0,18.3125,18.3125,18.3125,-3.875,-3.875,-3.875,6.716761,5.070304,9.202147,3.575893,5.050184,5.029583,,,,,,,,,,,,,,
-0.2314453,0.6083984,0.8164063,-0.04101563,-0.7104492,0.5874023,0,-10,-8,1,14,-2,0,-1,-1,-2,-4,0,4,-1,1,-2,-2.8125,-2.8125,-2.8125,-16.0625,-16.0625,-16.0625,6.714427,5.104249,9.204235,3.564924,5.087461,5.03128,,,,,,,,,,,,,,
0.2045898,0.6083984,0.9624023,0.02392578,-0.8056641,0.5991211,16,10,-3,-12,-15,-1,6,1,-1,-2,-2,-12,-8,-2,1,-1,6.9375,6.9375,6.9375,-16.0625,-16.0625,-16.0625,6.67991,5.09235,9.211223,3.544199,5.101018,5.036277,,,,,,,,,,,,,,
-0.3183594,0.6430664,0.7680664,-0.01269531,-0.7641602,0.6923828,-1,-2,1,40,-52,-11,-8,2,-1,-1,6,13,2,-4,-1,-2,-8.25,-8.25,-8.25,-1.5625,-1.5625,-1.5625,6.677402,5.126209,9.230597,3.543953,5.106502,5.035085,,,,,,,,,,,,,,
-0.6147461,0.8637695,0.152832,-0.03808594,-0.7709961,0.6035156,1,-5,-4,-14,10,0,3,10,-2,-2,-6,-4,-11,-1,0,-4,-2.1875,-2.1875,-2.1875,-5.1875,-5.1875,-5.1875,6.681626,5.128441,9.234166,3.542578,5.116778,5.034754,,,,,,,,,,,,,,
-0.2988281,0.9741211,0.6450195,-0.08984375,-0.8266602,0.6303711,-5,-3,-5,-4,8,1,-1,-2,-2,-3,-2,-2,-7,-5,-5,-3,5.0625,5.0625,5.0625,-2.6875,-2.6875,-2.6875,6.682387,5.121295,9.226695,3.536221,5.121545,5.034369,,,,,,,,,,,,,,
-0.7436523,0.9111328,0.3481445,-0.1040039,-0.7646484,0.6308594,-2,3,2,-25,20,9,9,0,-2,3,-1,5,-2,-14,-5,-3,-14.6875,-14.6875,-14.6875,6.4375,6.4375,6.4375,6.687531,5.150172,9.213453,3.544776,5.124292,5.025062,,,,,,,,,,,,,,
-0.7436523,0.9111328,0.3481445,-0.1040039,-0.7646484,0.6308594,-2,3,2,-25,20,9,9,0,-2,3,-1,5,-2,-14,-5,-3,-14.6875,-14.6875,-14.6875,6.4375,6.4375,6.4375,6.687531,5.150172,9.213453,3.544776,5.124292,5.025062,,,,,,,,,,,,,,
-0.6386719,0.6499023,0.7529297,-0.1542969,-0.8261719,0.6425781,5,30,13,9,4,0,-1,-4,-1,-1,5,6,-5,4,2,1,-7.125,-7.125,-7.125,-6.25,-6.25,-6.25,6.648151,5.210794,9.187352,3.541798,5.138718,5.015467,,,,,,,,,,,,,,
-0.9038086,0.7211914,0.4375,-0.1728516,-0.7988281,0.5942383,6,2,-5,6,-4,-1,1,14,1,0,0,4,2,-1,-1,1,-2,-2,-2,2,2,2,6.644796,5.252556,9.17334,3.543388,5.178254,5.006906,,,,,,,,,,,,,,
-0.6870117,0.8999023,0.1455078,-0.1494141,-0.7807617,0.6186523,-2,-4,-2,4,8,13,-1,4,-2,1,4,1,-2,-3,-1,-1,14.8125,14.8125,14.8125,-6.1875,-6.1875,-6.1875,6.672158,5.261615,9.149044,3.540597,5.192878,5.006037,,,,,,,,,,,,,,
0.009765625,0.8183594,0.559082,-0.1586914,-0.8276367,0.6044922,-4,-11,-9,18,-76,9,-25,-14,-2,-1,0,-7,6,5,1,0,-5.75,-5.75,-5.75,-2.8125,-2.8125,-2.8125,6.663289,5.212935,9.150607,3.533904,5.223894,5.005036,,,,,,,,,,,,,,
-0.06542969,0.8808594,0.4511719,-0.1694336,-0.7802734,0.5727539,-5,4,18,47,-5,33,-1,-8,-1,-1,1,3,1,6,-1,0,77.375,77.375,77.375,-2.75,-2.75,-2.75,6.704691,5.187516,9.13357,3.531361,5.251773,5.010594,,,,,,,,,,,,,,
0.1044922,1.158203,0.5239258,-0.1552734,-0.784668,0.5654297,-2,-3,-8,26,-4,-2,12,2,0,0,9,8,1,2,4,5,94.9375,94.9375,94.9375,-12.5,-12.5,-12.5,6.825557,5.157875,9.125933,3.520593,5.26812,5.024451,,,,,,,,,,,,,,
0.09667969,0.9916992,0.4335938,-0.1420898,-0.7768555,0.5664063,1,-17,-17,-34,-10,4,-4,6,1,-3,-7,-11,-2,1,-3,-1,-23.5625,-23.5625,-23.5625,-9.6875,-9.6875,-9.6875,6.832848,5.132707,9.163367,3.509876,5.267592,5.038295,,,,,,,,,,,,,,
-0.03564453,0.8530273,0.5014648,-0.1118164,-0.7885742,0.6010742,-50,-16,37,1,-1,-6,-21,-6,-3,-3,-1,14,-1,-4,2,0,-34.75,-34.75,-34.75,-10.6875,-10.6875,-10.6875,6.795582,5.12008,9.223032,3.501456,5.255865,5.052558,,,,,,,,,,,,,,
-0.1000977,0.9248047,0.5107422,-0.1176758,-0.8027344,0.621582,-2,-16,-16,-7,9,-3,-2,1,-2,0,0,-12,-1,-14,-4,-2,-48.9375,-48.9375,-48.9375,-6.9375,-6.9375,-6.9375,6.768864,5.120567,9.253701,3.496844,5.241997,5.060835,,,,,,,,,,,,,,
-0.2700195,0.8950195,0.5151367,-0.125,-0.7915039,0.6289063,-5,-5,6,7,9,4,-2,-15,-1,-2,4,4,4,4,-1,0,-74.1875,-74.1875,-74.1875,-2.0625,-2.0625,-2.0625,6.649066,5.182461,9.294179,3.49714,5.2298,5.061814,,,,,,,,,,,,,,
-0.2524414,0.7773438,0.4916992,-0.1611328,-0.8168945,0.628418,2,15,1,-6,-2,-2,-5,-2,-2,-1,3,-7,1,8,2,-2,-26.875,-26.875,-26.875,2.8125,2.8125,2.8125,6.597837,5.253742,9.263882,3.501098,5.222615,5.056302,,,,,,,,,,,,,,
-0.2011719,0.7924805,0.4301758,-0.1762695,-0.8212891,0.6010742,-1,0,5,-12,-53,-19,5,3,-1,-2,-3,-1,5,11,1,3,-1.875,-1.875,-1.875,7.5,7.5,7.5,6.587504,5.301631,9.21282,3.508594,5.225062,5.051157,,,,,,,,,,,,,,
-0.277832,0.8300781,0.3535156,-0.1948242,-0.8178711,0.5825195,3,-22,3,1,-6,6,7,-6,0,-2,0,3,-2,4,3,1,53.3125,53.3125,53.3125,4.9375,4.9375,4.9375,6.616698,5.335502,9.157645,3.513357,5.234979,5.046674,,,,,,,,,,,,,,
0.05761719,0.9863281,0.5390625,-0.1777344,-0.8222656,0.5771484,10,11,2,-10,8,-2,3,6,-1,-2,-4,-7,-10,-11,1,1,67.25,67.25,67.25,5.375,5.375,5.375,6.699953,5.319266,9.119484,3.517157,5.244507,5.045207,,,,,,,,,,,,,,
-0.04785156,1.084961,0.5141602,-0.1044922,-0.7890625,0.5952148,-10,11,4,12,47,5,3,1,-3,-4,0,-3,-10,-12,1,0,3.6875,3.6875,3.6875,-3.5625,-3.5625,-3.5625,6.706459,5.299519,9.128832,3.515625,5.248383,5.049704,,,,,,,,,,,,,,
-0.2451172,0.7802734,0.5043945,-0.1137695,-0.8745117,0.6279297,-2,-24,-1,-3,6,3,3,-1,0,-1,-4,-3,1,3,2,0,5.75,5.75,5.75,4.625,4.625,4.625,6.676895,5.260743,9.170449,3.515887,5.249175,5.053467,,,,,,,,,,,,,,
-0.2373047,0.9155273,0.4936523,-0.1547852,-0.7739258,0.5888672,-5,-9,-7,-32,-7,-1,-3,-3,0,0,1,2,-1,-2,2,-1,-3.8125,-3.8125,-3.8125,-2.125,-2.125,-2.125,6.682685,5.252543,9.180202,3.520202,5.252865,5.057386,,,,,,,,,,,,,,
-0.2255859,0.8598633,0.4780273,-0.1567383,-0.8295898,0.6147461,3,5,2,7,-24,-8,-6,2,-2,-2,-1,0,6,8,-4,-4,-0.5625,-0.5625,-0.5625,0.5,0.5,0.5,6.675389,5.25282,9.172897,3.515254,5.249258,5.050538,,,,,,,,,,,,,,
-0.175293,0.9047852,0.4692383,-0.1967773,-0.7817383,0.5917969,-2,-9,-5,-81,-5,-3,0,1,-1,-1,-3,0,-3,-5,-1,-2,-1.1875,-1.1875,-1.1875,7.125,7.125,7.125,6.677603,5.253581,9.163491,3.522788,5.246427,5.042243,,,,,,,,,,,,,,
-0.1811523,0.8613281,0.4946289,-0.1674805,-0.7958984,0.5922852,2,-2,-1,2,-8,3,2,2,-3,-1,-1,1,-2,5,3,0,-5.625,-5.625,-5.625,-0.875,-0.875,-0.875,6.670664,5.25281,9.160761,3.523556,5.242931,5.039688,,,,,,,,,,,,,,
-0.1445313,0.875,0.4770508,-0.1533203,-0.8115234,0.6152344,1,-1,3,-7,-3,-3,-4,-2,-2,-2,0,-2,-4,-3,-6,-5,2.4375,2.4375,2.4375,-1.625,-1.625,-1.625,6.672416,5.249635,9.15922,3.520866,5.23904,5.037307,,,,,,,,,,,,,,
0.1098633,0.7324219,0.8198242,-0.1518555,-0.8032227,0.6245117,-3,-5,-1,7,4,-4,-19,1,-1,-3,-10,-4,-2,-9,-1,-4,-7.875,-7.875,-7.875,2.3125,2.3125,2.3125,6.673254,5.242472,9.154648,3.523902,5.236124,5.035698,,,,,,,,,,,,,,
-0.1557617,0.8652344,0.496582,-0.1518555,-0.796875,0.6079102,-3,0,1,7,-4,-1,-3,-5,-1,-5,-1,-2,-2,5,-1,-1,-0.625,-0.625,-0.625,-0.625,-0.625,-0.625,6.681201,5.24372,9.155177,3.524979,5.236019,5.032115,,,,,,,,,,,,,,
-0.1811523,0.8583984,0.4853516,-0.1586914,-0.8076172,0.6074219,-5,-2,-3,-2,-1,-1,0,-1,-2,-10,-1,-2,-2,3,4,-2,-2.3125,-2.3125,-2.3125,0.125,0.125,0.125,6.678736,5.247925,9.147619,3.524249,5.236371,5.027966,,,,,,,,,,,,,,
-0.2773438,0.8115234,0.640625,-0.1669922,-0.7910156,0.5805664,-1,1,1,-1,-1,2,0,-4,0,-3,-1,-2,-3,-7,2,0,-1.75,-1.75,-1.75,0.875,0.875,0.875,6.669425,5.26401,9.137308,3.524776,5.235845,5.02609,,,,,,,,,,,,,,
-0.25,0.7607422,0.5922852,-0.1479492,-0.8134766,0.5473633,-1,-9,-6,-5,-1,0,-1,-3,-1,-2,1,0,0,-1,-1,0,-4.6875,-4.6875,-4.6875,4,4,4,6.678128,5.258534,9.125284,3.526499,5.228953,5.039455,,,,,,,,,,,,,,
-0.1635742,0.8222656,0.4287109,-0.1118164,-0.7021484,0.515625,-2,0,-2,-1,-2,-2,-1,3,0,-1,-2,0,0,5,0,1,-12.1875,-12.1875,-12.1875,-2.0625,-2.0625,-2.0625,6.669183,5.237807,9.096062,3.531249,5.208737,5.077007,,,,,,,,,,,,,,
-0.1181641,0.7490234,0.40625,-0.05712891,-0.7338867,0.4985352,-1,4,0,-2,-1,0,-1,-4,0,-1,1,-1,0,-2,-2,-2,-3.25,-3.25,-3.25,-26.9375,-26.9375,-26.9375,6.656692,5.194458,9.046391,3.512468,5.158213,5.133065,,,,,,,,,,,,,,
-0.04052734,0.7753906,0.4291992,0.03369141,-0.8095703,0.5551758,-2,-3,-6,-2,-1,-1,-1,-1,-1,-5,-1,0,-1,-1,2,0,16.3125,16.3125,16.3125,-7.75,-7.75,-7.75,6.665529,5.114278,8.987176,3.497998,5.069466,5.199272,,,,,,,,,,,,,,
0.0546875,0.8154297,0.425293,0.008300781,-0.7167969,0.5043945,-1,0,-1,0,-1,0,0,1,-4,-10,-24,-7,-4,-5,-6,-5,-0.125,-0.125,-0.125,8.0625,8.0625,8.0625,6.673337,4.989289,8.932955,3.508349,4.957572,5.270427,,,,,,,,,,,,,,
0.05419922,0.7631836,0.4350586,0.1577148,-0.7143555,0.5117188,0,-3,-4,-3,-2,-1,0,-1,-1,-3,-6,6,3,0,-4,-3,-10.8125,-10.8125,-10.8125,-31.1875,-31.1875,-31.1875,6.66824,4.9161,8.9085,3.478251,4.814833,5.351534,,,,,,,,,,,,,,
0.3242188,0.7553711,0.4770508,0.2670898,-0.7939453,0.5019531,4,1,0,-12,-6,3,0,-3,-3,1,-4,-2,-2,-1,-12,-4,23.625,23.625,23.625,-22.125,-22.125,-22.125,6.703059,4.656724,8.830143,3.434471,4.649018,5.420334,,,,,,,,,,,,,,
0.3208008,0.7949219,0.4311523,0.3803711,-0.6972656,0.503418,21,-4,-1,-2,2,5,-2,-1,2,0,3,12,-2,1,-7,2,11.875,11.875,11.875,-26.25,-26.25,-26.25,6.715184,4.566956,8.807135,3.393048,4.463986,5.482299,,,,,,,,,,,,,,
0.2836914,0.7749023,0.3852539,0.4814453,-0.7568359,0.5214844,-5,0,-2,7,-3,-2,0,0,1,-2,3,-2,-3,0,9,3,11.125,11.125,11.125,-32.5625,-32.5625,-32.5625,6.728554,4.472331,8.783499,3.328803,4.282522,5.548901,,,,,,,,,,,,,,
0.6625977,0.7539063,0.4155273,0.6088867,-0.6474609,0.4628906,-3,0,1,2,1,-3,0,-2,-4,1,-3,-1,-2,-1,4,-2,80.125,80.125,80.125,-6,-6,-6,6.861703,4.161958,8.719492,3.290168,4.095756,5.606978,,,,,,,,,,,,,,
0.6948242,0.6069336,0.3764648,0.6557617,-0.6357422,0.4760742,-2,-1,0,3,1,0,0,3,-3,-1,9,7,-1,-2,1,-3,47.25,47.25,47.25,-23.5625,-23.5625,-23.5625,6.969952,3.856726,8.690477,3.240143,3.912995,5.662599,,,,,,,,,,,,,,
0.9287109,0.5429688,0.234375,0.7397461,-0.690918,0.3876953,-2,-1,-1,-1,-3,0,-2,4,1,1,12,2,-1,1,5,0,84.9375,84.9375,84.9375,-32.75,-32.75,-32.75,7.062343,3.654814,8.676598,3.157001,3.731888,5.735956,,,,,,,,,,,,,,
0.949707,0.5883789,0.2177734,0.8432617,-0.6694336,0.3149414,12,-4,-4,-1,-4,-1,1,-1,-2,-2,-4,-1,-2,-3,-8,-5,88.4375,88.4375,88.4375,3.75,3.75,3.75,7.108309,3.562847,8.680065,3.089318,3.561093,5.818668,,,,,,,,,,,,,,
0.9267578,0.5649414,0.1982422,0.8774414,-0.4833984,0.2363281,-6,-3,0,-1,-1,-4,-2,-3,-1,-3,-1,-7,-11,0,1,0,52.25,52.25,52.25,6.6875,6.6875,6.6875,7.230932,3.310727,8.675927,3.016912,3.400088,5.922228,,,,,,,,,,,,,,
0.9267578,0.5649414,0.1982422,0.8774414,-0.4833984,0.2363281,-6,-3,0,-1,-1,-4,-2,-3,-1,-3,-1,-7,-11,0,1,0,52.25,52.25,52.25,6.6875,6.6875,6.6875,7.230932,3.310727,8.675927,3.016912,3.400088,5.922228,,,,,,,,,,,,,,
0.9267578,0.5649414,0.1982422,0.965332,-0.5097656,0.1708984,7,0,-1,-4,-3,0,-1,3,-3,-1,-1,-1,0,-1,-1,0,52.25,52.25,52.25,-17.3125,-17.3125,-17.3125,7.230932,3.310727,8.675927,2.873801,3.253974,6.071194,,,,,,,,,,,,,,
0.9086914,0.4658203,0.1035156,1.019531,-0.5141602,0.05517578,9,2,1,0,0,-1,-1,-1,1,1,0,0,2,-1,-3,1,29.8125,29.8125,29.8125,5.125,5.125,5.125,7.296703,3.171697,8.645491,2.701316,3.139294,6.258813,,,,,,,,,,,,,,
0.9682617,0.4047852,0.04101563,1.04541,-0.4414063,-0.02099609,1,1,-1,-2,-2,-2,-3,-3,-1,-3,-5,1,0,-1,0,-1,-22.75,-22.75,-22.75,18.625,18.625,18.625,7.459624,2.972145,8.463705,2.518834,3.052811,6.474477,,,,,,,,,,,,,,
1.027832,0.40625,-0.06689453,1.047852,-0.3901367,-0.04589844,3,0,-1,-1,0,-1,2,6,0,-1,-3,-4,0,-2,-3,-1,-54.25,-54.25,-54.25,16.4375,16.4375,16.4375,7.581544,2.91281,8.287703,2.350206,2.993355,6.673173,,,,,,,,,,,,,,
0.9956055,0.3110352,-0.1054688,0.9868164,-0.3549805,-0.02929688,-3,-5,1,-2,-1,0,0,-7,-3,-2,-1,-2,-1,0,2,-2,-31.875,-31.875,-31.875,5.4375,5.4375,5.4375,7.665906,2.866142,8.154408,2.207735,2.943802,6.839918,,,,,,,,,,,,,,
1.020508,0.3793945,-0.07324219,0.9448242,-0.3579102,0.01806641,0,-2,-2,-1,1,-3,-1,3,0,-1,-3,-6,1,-2,-4,-4,-30.125,-30.125,-30.125,-8.0625,-8.0625,-8.0625,7.719632,2.847946,8.06629,2.199595,2.930192,6.844001,,,,,,,,,,,,,,
0.9501953,0.3427734,-0.04394531,0.9125977,-0.3852539,0.07714844,-1,-2,-1,0,-1,-3,-7,-16,1,1,16,2,-1,0,0,-1,-48.6875,-48.6875,-48.6875,-3.3125,-3.3125,-3.3125,7.681641,2.846725,8.054443,2.254823,2.931319,6.783361,,,,,,,,,,,,,,
0.9291992,0.3383789,0.02441406,0.8979492,-0.3876953,0.0703125,11,1,0,-1,0,-2,-2,9,-2,-2,-14,2,-1,-1,-1,-1,-63.25,-63.25,-63.25,4.3125,4.3125,4.3125,7.595255,2.863152,8.074345,2.331573,2.943425,6.710161,,,,,,,,,,,,,,
0.9047852,0.3051758,0.002441406,0.894043,-0.371582,0.05859375,-3,-1,-2,-2,0,1,0,0,-4,-1,1,1,-1,2,0,2,-56.9375,-56.9375,-56.9375,12.75,12.75,12.75,7.548814,2.873341,8.090237,2.393293,2.960584,6.659149,,,,,,,,,,,,,,
0.8862305,0.3198242,0.0546875,0.9052734,-0.3295898,0.03808594,2,-2,1,-3,0,-2,1,2,0,0,-4,-3,-3,-2,0,1,-11.5625,-11.5625,-11.5625,12.125,12.125,12.125,7.4733,2.908448,8.125935,2.441377,2.977539,6.625969,,,,,,,,,,,,,,
0.9228516,0.2753906,0.01904297,0.9262695,-0.3105469,0.006835938,1,-1,0,2,-1,-2,-1,1,0,0,0,1,-1,0,-2,-2,-9.9375,-9.9375,-9.9375,10.5,10.5,10.5,7.445243,2.932491,8.13873,2.477782,2.995049,6.600938,,,,,,,,,,,,,,
0.9399414,0.2714844,0.05517578,0.9477539,-0.2885742,-0.008789063,2,0,-1,0,-1,-2,-5,-6,0,-3,2,1,0,-4,-3,-11,-7.5625,-7.5625,-7.5625,9.375,9.375,9.375,7.436261,2.948486,8.139688,2.508646,3.014343,6.579028,,,,,,,,,,,,,,
0.9658203,0.2451172,0.02880859,0.9770508,-0.2792969,-0.02929688,-1,0,0,0,3,-2,-3,11,0,-1,0,-1,1,-2,-1,-2,-16.5,-16.5,-16.5,7.125,7.125,7.125,7.433189,2.963571,8.124879,2.534619,3.033874,6.559396,,,,,,,,,,,,,,
0.9536133,0.2392578,0.0078125,0.9819336,-0.2841797,-0.04101563,9,2,1,-1,1,2,2,3,-2,-2,-4,-6,-3,0,-1,-2,2.875,2.875,2.875,9.4375,9.4375,9.4375,7.450956,2.977564,8.108423,2.564952,3.054226,6.536178,,,,,,,,,,,,,,
0.9643555,0.2368164,0,0.9829102,-0.2871094,-0.0234375,-3,-2,-2,2,-1,0,1,-22,1,-1,-4,-1,-2,0,-2,-3,-1,-1,-1,6.8125,6.8125,6.8125,7.454751,2.983001,8.103883,2.602188,3.070764,6.505047,,,,,,,,,,,,,,
