ALX,ALY,ALZ,ARX,ARY,ARZ,EMG0L,EMG1L,EMG2L,EMG3L,EMG4L,EMG5L,EMG6L,EMG7L,EMG0R,EMG1R,EMG2R,EMG3R,EMG4R,EMG5R,EMG6R,EMG7R,GLX,GLY,GLZ,GRX,GRY,GRZ,ORL,OPL,OYL,ORR,OPR,OYR
1.014648,0.3276367,-0.00390625,0.8891602,-0.5996094,0.3339844,1,9,11,-6,-4,-2,-1,-4,0,0,9,-8,-3,-8,-4,-1,9.375,9.375,9.375,-17,-17,-17,7.301174,3.020478,9.276881,3.246437,3.468943,5.866336
1.037109,0.3486328,0.01464844,0.8408203,-0.6396484,0.3842773,-4,-13,8,-15,-1,1,2,-4,-6,-5,-10,-7,-5,-1,0,-1,7.125,7.125,7.125,-0.9375,-0.9375,-0.9375,7.252715,3.042144,9.332612,3.334333,3.611279,5.750678
1.074707,0.4414063,0.1855469,0.7021484,-0.6318359,0.4467773,-3,-11,-8,9,0,-1,-5,-7,1,1,-15,-2,15,5,0,-4,40.3125,40.3125,40.3125,-5.3125,-5.3125,-5.3125,7.049021,3.162052,9.597213,3.407963,3.769087,5.646324
0.9980469,0.6196289,0.2250977,0.5932617,-0.684082,0.4760742,-3,-1,-5,-6,1,-4,8,1,2,0,3,-5,-6,-2,-2,-2,50.8125,50.8125,50.8125,6.8125,6.8125,6.8125,6.948944,3.300529,9.773522,3.471614,3.935645,5.554059
0.9501953,0.7021484,0.2763672,0.5327148,-0.684082,0.4912109,6,5,-12,-5,0,3,6,2,-1,0,-7,-2,-4,-4,1,2,26.75,26.75,26.75,14.4375,14.4375,14.4375,6.894049,3.384053,9.854322,3.505019,4.020037,5.51158
0.8100586,0.6567383,0.3842773,0.4375,-0.6518555,0.5473633,-1,-12,0,-3,6,7,3,6,0,-3,-3,-4,-12,-10,-11,0,-8.4375,-8.4375,-8.4375,14.4375,14.4375,14.4375,6.778185,3.569239,9.989275,3.563151,4.192447,5.432786
0.5253906,0.7016602,0.5219727,0.3457031,-0.6303711,0.5664063,0,19,36,-12,4,4,14,-9,1,2,6,3,0,1,8,3,-14.1875,-14.1875,-14.1875,7.125,7.125,7.125,6.660632,3.894337,0.1234294,3.607563,4.354625,5.355667
0.4277344,0.6821289,0.5,0.2597656,-0.675293,0.5478516,0,-13,-2,32,16,-1,1,-2,-1,1,5,24,2,0,-4,-2,-27.25,-27.25,-27.25,-4.125,-4.125,-4.125,6.627447,4.010308,0.1520144,3.630531,4.505807,5.285433
0.3837891,0.6669922,0.5024414,0.2211914,-0.6987305,0.578125,-9,-15,-13,6,-16,-4,1,-2,-1,-1,2,-3,-3,7,8,2,-26.8125,-26.8125,-26.8125,-2.5,-2.5,-2.5,6.600543,4.126976,0.1727977,3.637094,4.576498,5.257213
0.2416992,0.6474609,0.5058594,0.2124023,-0.6616211,0.6201172,-2,-14,-9,-27,-21,-1,8,2,0,0,1,-1,-7,-13,-10,2,-17.1875,-17.1875,-17.1875,-1.4375,-1.4375,-1.4375,6.567907,4.361585,0.1973323,3.64717,4.701779,5.206764
0.1450195,0.7260742,0.4443359,0.1279297,-0.6743164,0.5917969,-1,-3,10,-25,-22,0,7,1,0,-1,0,-3,2,4,2,-1,9,9,9,-8.4375,-8.4375,-8.4375,6.570311,4.665942,0.2012652,3.648311,4.807843,5.16043
0.1313477,0.7441406,0.4521484,0.1367188,-0.7177734,0.6206055,0,-1,-8,-28,-51,-9,-2,-4,0,-2,1,-3,3,4,5,3,9.3125,9.3125,9.3125,-4.9375,-4.9375,-4.9375,6.575214,4.743971,0.2041342,3.643998,4.886003,5.129029
0.1508789,0.7124023,0.4619141,0.1132813,-0.7041016,0.644043,0,-5,-5,-3,-2,1,2,-2,0,1,3,-2,-6,-6,-6,-3,5.1875,5.1875,5.1875,4.375,4.375,4.375,6.57762,4.806234,0.209217,3.648985,4.942646,5.113354
0.1166992,0.7446289,0.5170898,0.07666016,-0.7036133,0.6469727,-1,-4,-3,22,14,4,5,-1,-3,-1,1,3,-3,0,-13,-7,18.375,18.375,18.375,0,0,0,6.59234,4.918632,0.2426857,3.65003,4.964923,5.110289
0.1166992,0.7875977,0.5615234,0.1176758,-0.7504883,0.6635742,1,-2,-3,1,59,6,-2,3,0,-1,15,42,6,1,-6,0,11.875,11.875,11.875,-8.5,-8.5,-8.5,6.603158,4.938736,0.2741514,3.643803,4.999359,5.114244
0.03515625,0.8027344,0.5400391,0.112793,-0.7504883,0.706543,2,5,8,-4,-2,-3,0,1,0,-3,-1,-4,6,7,-4,-5,-0.6875,-0.6875,-0.6875,-5.5625,-5.5625,-5.5625,6.602418,4.941388,0.3021566,3.642212,5.004017,5.116852
0.008300781,0.7597656,0.6118164,0.01123047,-0.7670898,0.6708984,1,2,1,-1,-2,0,-13,-3,-1,1,2,-2,-11,-3,7,6,0.1875,0.1875,0.1875,3.8125,3.8125,3.8125,6.592835,4.942588,0.3176129,3.645819,5.017137,5.120673
0.00390625,0.9023438,0.5595703,-0.03417969,-0.7080078,0.652832,2,2,-5,-54,-33,-1,-2,0,-1,1,-2,1,1,1,1,0,13.3125,13.3125,13.3125,2.0625,2.0625,2.0625,6.606274,4.943164,0.3235632,3.650937,5.023185,5.121298
-0.01757813,0.9208984,0.5541992,-0.01806641,-0.7685547,0.6835938,1,-1,-1,26,26,6,11,1,0,6,16,29,7,2,-1,0,2,2,2,-1.25,-1.25,-1.25,6.608246,4.947025,0.3246442,3.649323,5.019854,5.118981
-0.1225586,0.9008789,0.5800781,-0.01123047,-0.7939453,0.6928711,0,-1,-15,14,-32,-7,-25,0,1,-1,-1,2,0,-7,-4,0,-8.375,-8.375,-8.375,7.3125,7.3125,7.3125,6.597725,4.975976,0.3316438,3.654557,5.022274,5.11677
-0.2246094,0.9072266,0.5253906,-0.04296875,-0.7797852,0.6850586,-9,-3,8,-1,2,2,7,-7,2,1,0,6,4,-9,-1,1,18.125,18.125,18.125,4.5625,4.5625,4.5625,6.611475,5.035612,0.3224714,3.65693,5.028183,5.114945
-0.2192383,0.8925781,0.4790039,-0.1196289,-0.8222656,0.6967773,-3,1,16,-1,0,1,-2,1,-1,-3,0,0,3,12,6,0,13.75,13.75,13.75,-7.4375,-7.4375,-7.4375,6.634604,5.117745,0.2890517,3.649714,5.050416,5.109232
-0.06103516,0.8066406,0.5683594,-0.1264648,-0.8232422,0.6831055,-11,-14,12,7,6,-2,-6,22,-3,-1,-5,-4,-12,-4,3,1,4.5625,4.5625,4.5625,4.75,4.75,4.75,6.6331,5.150923,0.2737278,3.648074,5.083097,5.102586
0.1098633,0.6821289,0.644043,-0.1186523,-0.7333984,0.6533203,0,0,-5,-4,-5,-8,-29,-96,-1,-2,-7,-9,-4,-4,-4,-1,0.0625,0.0625,0.0625,-7.375,-7.375,-7.375,6.624486,5.165611,0.2599517,3.645417,5.125979,5.100874
0.2519531,0.6992188,0.6376953,-0.128418,-0.7851563,0.6635742,0,-4,-9,-50,9,-31,32,17,0,-1,-3,1,-2,4,-4,-1,11.5625,11.5625,11.5625,-9.5,-9.5,-9.5,6.603456,5.177917,0.2195822,3.631226,5.169903,5.105071
0.0546875,0.9155273,0.4912109,-0.1420898,-0.7402344,0.6362305,2,8,5,40,60,15,-16,-36,2,0,0,-3,0,5,1,3,78.75,78.75,78.75,-1.6875,-1.6875,-1.6875,6.677697,5.139135,0.1741225,3.630536,5.208522,5.116329
0.1206055,1.157715,0.5834961,-0.1352539,-0.6943359,0.609375,-4,-13,-10,27,6,0,6,-6,-2,-1,-2,1,-7,-7,1,0,69.0625,69.0625,69.0625,-13.0625,-13.0625,-13.0625,6.773755,5.117694,0.1557721,3.622537,5.232995,5.133723
0.01513672,0.8842773,0.4462891,-0.1274414,-0.7260742,0.6142578,-7,-9,-11,-21,22,-13,-14,-3,-2,-1,-6,-13,0,0,-3,-3,-30.125,-30.125,-30.125,-12.625,-12.625,-12.625,6.761061,5.090146,0.1991369,3.608888,5.234261,5.147473
-0.04199219,0.8808594,0.4726563,-0.1118164,-0.730957,0.6206055,6,7,-4,-23,1,-1,1,2,-3,-3,-4,-8,-5,-4,-10,-8,-2.75,-2.75,-2.75,-5.5625,-5.5625,-5.5625,6.752051,5.062949,0.2494303,3.603771,5.221367,5.161199
-0.1987305,0.9301758,0.5708008,-0.09423828,-0.7207031,0.6542969,-23,-36,1,11,3,1,-5,-25,2,-2,-3,0,1,-2,4,2,-70.9375,-70.9375,-70.9375,-15.6875,-15.6875,-15.6875,6.69291,5.056439,0.305364,3.594471,5.198223,5.173387
-0.2080078,0.8554688,0.6054688,-0.05712891,-0.8007813,0.668457,12,-42,-13,-1,-6,-3,0,-4,-2,1,12,30,4,-6,1,-4,-76.5,-76.5,-76.5,-14.25,-14.25,-14.25,6.599052,5.084842,0.3349881,3.578707,5.166722,5.173315
-0.2075195,0.8041992,0.5751953,-0.05664063,-0.7963867,0.6704102,-3,21,4,1,-2,-1,-3,-4,-3,-2,-3,-5,-1,-4,2,1,-39.375,-39.375,-39.375,-0.875,-0.875,-0.875,6.542932,5.136588,0.3275102,3.575989,5.140683,5.164054
-0.1816406,0.7993164,0.5488281,-0.09619141,-0.7978516,0.6728516,0,7,6,-2,-9,0,-10,6,-1,-2,-5,-5,-5,-3,-18,-8,-12.1875,-12.1875,-12.1875,3.5625,3.5625,3.5625,6.519972,5.187449,0.2905386,3.578898,5.130354,5.151974
-0.2670898,0.7280273,0.3862305,-0.1425781,-0.7817383,0.6518555,1,2,0,39,24,-5,9,2,-1,-2,-2,-6,-2,0,4,2,17.1875,17.1875,17.1875,6.6875,6.6875,6.6875,6.523284,5.231599,0.2374048,3.586809,5.134269,5.140975
-0.1787109,0.8364258,0.3862305,-0.1293945,-0.8012695,0.6381836,5,-4,-7,-27,-29,-5,0,3,-3,-2,-2,-5,-4,5,0,0,60.25,60.25,60.25,5.1875,5.1875,5.1875,6.557924,5.238289,0.2055829,3.591785,5.143982,5.140803
-0.006347656,0.9931641,0.5253906,-0.1064453,-0.7978516,0.6049805,-1,-11,-4,10,-8,3,-1,2,-1,-3,-4,-2,13,19,0,-1,-22.9375,-22.9375,-22.9375,4.25,4.25,4.25,6.616043,5.192407,0.1727791,3.595589,5.152203,5.148241
-0.1665039,0.690918,0.6547852,-0.06494141,-0.8203125,0.6450195,0,-6,0,5,26,-1,0,1,-2,-2,-5,-5,-4,-4,3,3,-13.4375,-13.4375,-13.4375,-1.875,-1.875,-1.875,6.576506,5.164669,0.1900057,3.594578,5.154438,5.156429
-0.2216797,0.8334961,0.5712891,-0.08398438,-0.7744141,0.6171875,-8,-6,-8,-64,-18,-2,2,1,0,-2,-2,1,6,6,-4,-2,7.625,7.625,7.625,5.5,5.5,5.5,6.580346,5.1611,0.1943327,3.599304,5.157403,5.162062
-0.1938477,0.8535156,0.5258789,-0.08935547,-0.765625,0.65625,-1,4,-3,-11,-15,-1,-4,-1,1,-2,-2,-4,-4,-3,3,4,-4.9375,-4.9375,-4.9375,-7.4375,-7.4375,-7.4375,6.582285,5.161091,0.1909402,3.59469,5.15619,5.160144
-0.1845703,0.8457031,0.5449219,-0.1206055,-0.796875,0.6582031,-2,-2,-1,10,3,0,1,-2,-1,0,-3,-1,-5,-4,5,-1,-4.25,-4.25,-4.25,5.875,5.875,5.875,6.577224,5.163378,0.1816479,3.59627,5.153301,5.148387
-0.1523438,0.8388672,0.5424805,-0.1381836,-0.7641602,0.625,1,1,3,-5,-6,-5,2,-1,-3,-1,1,1,-2,7,2,1,-2.8125,-2.8125,-2.8125,7.4375,7.4375,7.4375,6.575524,5.163707,0.1765917,3.604507,5.152891,5.142335
-0.1411133,0.840332,0.5498047,-0.1103516,-0.7719727,0.6420898,0,1,-1,10,-9,1,-3,-3,-1,0,-2,-2,-2,4,0,-1,-0.4375,-0.4375,-0.4375,-2.125,-2.125,-2.125,6.574036,5.163213,0.1693342,3.604254,5.150892,5.142617
-0.1166992,0.8666992,0.5483398,-0.08300781,-0.7939453,0.6494141,-1,3,1,-1,-21,-4,-2,-2,-2,-1,-1,-3,-1,-6,-3,-1,3.75,3.75,3.75,1.6875,1.6875,1.6875,6.578245,5.158399,0.1657198,3.604433,5.147,5.144872
-0.1201172,0.8618164,0.5478516,-0.07617188,-0.7807617,0.6704102,-2,2,0,-1,-2,-2,-2,-1,0,-1,0,-2,-7,-8,-2,-1,-1.75,-1.75,-1.75,2.9375,2.9375,2.9375,6.578657,5.153514,0.1648908,3.608706,5.1452,5.146686
-0.1264648,0.8481445,0.5571289,-0.07910156,-0.7724609,0.65625,0,-3,-4,10,1,1,2,0,0,-1,-1,1,5,11,2,-1,-4.125,-4.125,-4.125,-0.75,-0.75,-0.75,6.576267,5.152001,0.1641112,3.610227,5.14459,5.147432
-0.4892578,0.9150391,0.4643555,-0.08154297,-0.7788086,0.6552734,0,-1,4,14,16,3,-1,-1,-2,-2,-1,0,-1,-3,-1,-2,3.9375,3.9375,3.9375,2,2,2,6.570552,5.166064,0.164179,3.610386,5.142769,5.146776
0.3876953,0.7573242,0.925293,-0.08398438,-0.753418,0.6513672,3,2,-1,-6,27,1,0,2,0,-1,0,0,1,-3,0,0,-7.5,-7.5,-7.5,3.625,3.625,3.625,6.528594,5.135673,0.1581665,3.615225,5.1405,5.145366
-0.8154297,0.7011719,0.421875,-0.08154297,-0.7421875,0.6567383,-5,2,2,-10,-9,-3,-2,-1,-2,-1,-1,6,0,1,-2,-2,-3.25,-3.25,-3.25,1.3125,1.3125,1.3125,6.508648,5.156461,0.1545825,3.617898,5.134979,5.145395
0.4521484,1.013672,0.5664063,-0.04931641,-0.7504883,0.6264648,-1,-6,-2,-2,-3,-1,-1,0,-1,-1,-1,0,1,0,0,0,-2.75,-2.75,-2.75,2.8125,2.8125,2.8125,6.512055,5.132899,0.15207,3.620743,5.12023,5.148186
0.3876953,0.7783203,0.918457,-0.06005859,-0.6870117,0.5742188,-6,-4,0,1,-3,-2,-1,2,1,0,3,1,1,2,-8,-8,-5.8125,-5.8125,-5.8125,5.6875,5.6875,5.6875,6.496838,5.130224,0.1499503,3.627313,5.088734,5.160175
-0.7758789,0.5322266,0.2133789,-0.03808594,-0.6342773,0.5551758,2,-1,0,0,-2,0,-2,-3,-1,-4,2,-1,0,-1,-4,-1,-13.1875,-13.1875,-13.1875,-21.5,-21.5,-21.5,6.510653,5.116274,0.1482539,3.614543,5.02861,5.185019
-0.4731445,0.4506836,0.4560547,-0.02099609,-0.6772461,0.5581055,0,-2,-5,-4,-4,-1,0,1,-3,-9,-10,-2,-1,-2,2,-1,7.8125,7.8125,7.8125,-25.9375,-25.9375,-25.9375,6.504884,5.078866,0.1258942,3.600156,4.985689,5.201599
0.1235352,0.7456055,0.5151367,0.03662109,-0.7612305,0.5244141,0,-1,-2,-19,-1,0,-1,-2,-1,0,-2,-1,-1,3,26,0,18.1875,18.1875,18.1875,-26.5,-26.5,-26.5,6.534798,4.970815,0.1064438,3.565564,4.871958,5.246512
0.1030273,0.7319336,0.5048828,0.1396484,-0.7329102,0.5483398,-1,-1,-5,11,-1,-4,-2,1,-2,-2,-1,-6,-7,1,3,1,2.6875,2.6875,2.6875,-17.5,-17.5,-17.5,6.536507,4.897751,0.09961761,3.515803,4.654221,5.317472
0.2915039,0.6845703,0.5112305,0.1884766,-0.7324219,0.5083008,-8,-6,-2,-2,0,-4,-1,1,-3,1,-2,-4,16,3,3,0,42.9375,42.9375,42.9375,-11.625,-11.625,-11.625,6.565742,4.628398,0.06324489,3.50351,4.571243,5.341096
0.3916016,0.8105469,0.4907227,0.3505859,-0.7075195,0.5029297,-26,-5,-4,-2,-3,0,-2,-3,-3,-14,-13,-6,-3,-9,2,-2,33,33,33,-34.125,-34.125,-34.125,6.619952,4.439838,0.02905254,3.455527,4.389716,5.393211
0.5161133,0.75,0.4316406,0.4941406,-0.7490234,0.4804688,-18,-1,-5,-3,-1,2,-3,-1,-2,-2,0,-5,-6,1,11,3,14.75,14.75,14.75,-16.875,-16.875,-16.875,6.65157,4.23952,0.007980042,3.402936,4.201304,5.452378
0.609375,0.6547852,0.4575195,0.6308594,-0.5732422,0.4277344,0,1,-2,-1,-1,2,0,0,-1,1,-6,3,-1,-2,-11,-3,2.5625,2.5625,2.5625,-14.875,-14.875,-14.875,6.657723,4.140608,9.996959,3.353321,4.007262,5.517438
0.5395508,0.6367188,0.4462891,0.7749023,-0.6386719,0.3618164,5,-2,-1,2,3,3,2,-1,3,5,-10,-18,-3,-1,-4,1,10.6875,10.6875,10.6875,-38.9375,-38.9375,-38.9375,6.670411,4.043865,9.983451,3.267648,3.815842,5.59267
0.6386719,0.6162109,0.3051758,0.8251953,-0.6259766,0.3164063,5,0,0,-1,-2,-2,0,1,2,5,-5,-1,-1,0,6,0,42.5625,42.5625,42.5625,-24.375,-24.375,-24.375,6.745658,3.833406,9.92808,3.170309,3.626239,5.684968
0.9370117,0.5751953,0.1918945,0.9428711,-0.5541992,0.2421875,-1,-2,-2,-1,-1,-3,-1,-2,0,-9,1,-1,-3,-1,-4,-3,-24.5625,-24.5625,-24.5625,-9.25,-9.25,-9.25,6.949464,3.416606,9.689791,3.04747,3.44115,5.819948
1.075684,0.4599609,0.06103516,1.022461,-0.484375,0.152832,-6,-1,-1,0,2,10,1,-1,-3,3,1,-1,-2,-2,6,0,-57.75,-57.75,-57.75,19.875,19.875,19.875,7.09445,3.228588,9.458957,2.896503,3.274822,6.012456
1.127441,0.3974609,-0.02880859,1.088379,-0.4077148,0.01171875,1,0,0,-1,-1,-1,-2,-3,0,-2,-1,-3,-2,-3,1,-3,-61.875,-61.875,-61.875,35.25,35.25,35.25,7.196893,3.149733,9.308731,2.698127,3.144574,6.272312
1.12793,0.3364258,-0.2133789,1.083496,-0.3491211,-0.08447266,5,1,-2,-2,0,0,-2,-1,0,-1,0,-1,0,-2,-2,1,-48.5,-48.5,-48.5,40.75,40.75,40.75,7.43793,3.038917,8.987313,2.48223,3.056095,6.54985
1.033203,0.2753906,-0.1987305,1.040039,-0.3178711,-0.1108398,-3,-1,-1,0,-3,-2,-1,0,-2,0,-2,-1,-2,0,-1,-2,-23.4375,-23.4375,-23.4375,39.625,39.625,39.625,7.75731,2.952497,8.603009,2.306757,2.999322,6.780899
1.024414,0.2636719,-0.1411133,1.004883,-0.2919922,-0.05517578,0,-1,-2,-1,0,-3,-2,1,-4,-3,-2,-2,-1,3,-1,-2,-9.5625,-9.5625,-9.5625,21.75,21.75,21.75,7.801936,2.936399,8.552382,2.209697,2.964247,6.914383
0.9985352,0.2768555,-0.01611328,0.9887695,-0.3544922,0.04296875,3,-3,-2,0,-1,-1,0,-5,-2,-1,-1,-2,-2,-3,0,-1,26.5,26.5,26.5,12,12,12,7.808619,2.916256,8.565575,2.201016,2.943831,6.940311
0.9394531,0.3427734,0.1113281,0.965332,-0.3935547,0.1210938,-3,0,0,-2,-1,0,0,-5,-4,0,2,0,-2,0,-1,2,53.25,53.25,53.25,12.125,12.125,12.125,7.73853,2.908523,8.689363,2.268358,2.93509,6.88769
0.8603516,0.4433594,0.1499023,0.9130859,-0.4145508,0.1196289,-4,0,0,-3,0,2,0,-1,0,-1,-1,-2,0,0,0,-1,36.1875,36.1875,36.1875,19.9375,19.9375,19.9375,7.633277,2.915153,8.843834,2.364808,2.936245,6.811585
0.8193359,0.4282227,0.1489258,0.875,-0.3916016,0.1318359,-2,-1,-2,-1,-2,-1,0,4,0,-3,-2,0,-2,-1,0,0,-4.8125,-4.8125,-4.8125,20.75,20.75,20.75,7.534334,2.928967,8.948769,2.45999,2.943349,6.740925
0.8588867,0.3422852,0.09472656,0.8901367,-0.3779297,0.1030273,-6,-1,-1,0,-1,-2,0,-3,-2,-2,-1,0,-1,-3,-1,0,-21.8125,-21.8125,-21.8125,12.125,12.125,12.125,7.47738,2.937109,8.983386,2.530865,2.955601,6.686662
0.9199219,0.2983398,0.03955078,0.9150391,-0.371582,0.06542969,7,0,0,0,1,0,-2,41,-2,-2,-1,-1,1,0,-1,-2,-25.625,-25.625,-25.625,11.875,11.875,11.875,7.450915,2.944786,8.980036,2.583085,2.974944,6.647042
0.9765625,0.2680664,-0.01953125,0.9462891,-0.3618164,0.02539063,-3,-2,-1,-1,-1,-3,2,-7,1,-1,0,0,-1,-1,-2,0,-17.9375,-17.9375,-17.9375,13,13,13,7.429689,2.952847,8.979316,2.633186,3.000583,6.609393
1.001953,0.2680664,-0.05224609,0.9399414,-0.3530273,0.009765625,2,-1,0,0,0,-3,-1,-4,-1,-2,-2,-2,-2,0,0,0,-11,-11,-11,16.1875,16.1875,16.1875,7.39512,2.96438,9.002394,2.685686,3.033702,6.571036
0.9916992,0.2548828,-0.04443359,0.9550781,-0.3369141,0.001464844,2,-1,-1,-3,0,0,0,0,0,-2,-2,-1,0,-1,-2,-1,2.1875,2.1875,2.1875,17.625,17.625,17.625,7.343134,2.979495,9.056266,2.748335,3.071702,6.524192
0.9599609,0.2666016,-0.01806641,0.9667969,-0.324707,0.02587891,0,0,0,-1,-1,-1,-2,-2,-3,0,-2,0,-2,1,0,-2,12.75,12.75,12.75,11.6875,11.6875,11.6875,7.284723,2.999428,9.131386,2.816481,3.110789,6.465948
0.9599609,0.2666016,-0.01806641,0.9667969,-0.324707,0.02587891,7,-1,0,-1,-2,0,-1,1,-3,0,-2,0,-2,1,0,-2,12.75,12.75,12.75,11.6875,11.6875,11.6875,7.284723,2.999428,9.131386,2.816481,3.110789,6.465948
0.925293,0.2675781,0.02734375,0.9643555,-0.3344727,0.05126953,-4,-2,-1,0,-3,-1,-1,-16,1,1,-1,-2,-2,-2,-2,-1,16.4375,16.4375,16.4375,0.875,0.875,0.875,7.227572,3.021598,9.2104,2.873301,3.15038,6.407784
