ALX,ALY,ALZ,ARX,ARY,ARZ,EMG0L,EMG1L,EMG2L,EMG3L,EMG4L,EMG5L,EMG6L,EMG7L,EMG0R,EMG1R,EMG2R,EMG3R,EMG4R,EMG5R,EMG6R,EMG7R,GLX,GLY,GLZ,GRX,GRY,GRZ,ORL,OPL,OYL,ORR,OPR,OYR,LHNX,LHNY,LHNZ,RHNX,RHNY,RHNZ,HX,HY,HZ,LTX,LTY,LTZ,RTX,RTY,RTZ,SpineMidX,SpineMidY,SpineMidZ,SpineBaseX,SpineBaseY,SpineBaseZ,ShoulderLeftX,ShoulderLeftY,ShoulderLeftZ,ShoulderRightX,ShoulderRightY,ShoulderRightZ,ElbowLeftX,ElbowLeftY,ElbowLeftZ,ElbowRightX,ElbowRightY,ElbowRightZ,Myo_Pose_left,Myo_Pose_Right,Kinect_pose_left,Kinect_pose_right
1.074707,0.3061523,-0.03369141,1.003906,-0.3569336,-0.1210938,-1,6,22,6,-3,1,-1,0,-3,-1,-2,-15,-43,-8,3,-2,-14.25,-14.25,-14.25,-5.4375,-5.4375,-5.4375,7.351409,3.028809,0.8899044,2.449873,2.992173,6.853272,-0.1770594,-0.4534704,1.609717,0.2775352,-0.4345309,1.563512,0.07081143,0.4197966,1.65582,-0.222526,-0.4577083,1.6145,0.2525605,-0.4250705,1.536233,0.06419607,-0.06546932,1.673452,0.0662793,-0.3891854,1.652553,-0.1175705,0.1211372,1.666833,-0.009731821,-0.3800199,1.61951,-0.1697054,-0.1271316,1.679137,0.2865002,-0.1551208,1.65546,NA,NA,NotTracked,NotTracked
1.087402,0.3242188,0.03076172,1.042969,-0.3320313,-0.08105469,0,-3,2,10,6,-1,-1,-4,2,-2,1,7,24,-1,2,-17,-11.375,-11.375,-11.375,-6.625,-6.625,-6.625,7.265689,3.060062,0.974198,2.461979,2.999957,6.833497,-0.1798735,-0.4499603,1.61152,0.2698625,-0.4313248,1.553532,0.07047312,0.4199381,1.65593,-0.2222771,-0.4467544,1.611364,0.2370518,-0.4066209,1.573308,0.06402574,-0.06547515,1.673297,0.06595477,-0.3892171,1.652048,-0.117598,0.1211105,1.666797,-0.01006727,-0.3800026,1.618895,-0.1702804,-0.1274641,1.679572,0.2891221,-0.1528011,1.656618,NA,NA,NotTracked,NotTracked
1.055176,0.3608398,0.1723633,1.032227,-0.375,0.004882813,7,7,-11,4,0,0,-2,-2,-3,-1,1,-7,10,2,-8,-46,-9.9375,-9.9375,-9.9375,-25.125,-25.125,-25.125,7.074354,3.149417,1.1635,2.534105,3.028461,6.733176,-0.182262,-0.4484608,1.612203,0.2695278,-0.4151255,1.537945,0.07007016,0.419982,1.656186,-0.2242578,-0.4391224,1.610905,0.238251,-0.4015163,1.536265,0.06385284,-0.06542382,1.67317,0.06559919,-0.3890557,1.651669,-0.1176734,0.1211372,1.666812,-0.01047693,-0.3797441,1.61834,-0.1715244,-0.1271558,1.680902,0.2935512,-0.1502919,1.658953,NA,NA,NotTracked,NotTracked
1.055176,0.3608398,0.1723633,1.041016,-0.4375,0.09667969,-1,-12,-14,4,0,-2,4,0,0,-2,-4,-16,-76,-19,-2,9,-9.9375,-9.9375,-9.9375,-29.8125,-29.8125,-29.8125,7.074354,3.149417,1.1635,2.651647,3.083569,6.57538,-0.1850702,-0.446188,1.610063,0.2415444,-0.4334673,1.517165,0.06978749,0.4200147,1.656256,-0.2274087,-0.4348124,1.610368,0.2041958,-0.4127216,1.52968,0.06363158,-0.06535515,1.67294,0.06503972,-0.3888221,1.651103,-0.1176979,0.1211289,1.666821,-0.01110321,-0.3794297,1.617624,-0.1745326,-0.1273233,1.682925,0.2974786,-0.1473049,1.661472,NA,NA,NotTracked,NotTracked
0.9150391,0.7539063,0.3803711,1.066406,-0.4785156,0.1337891,-5,-1,-32,5,2,-5,-5,-4,4,-3,-2,-18,9,-3,0,7,2.75,2.75,2.75,-34.4375,-34.4375,-34.4375,6.831634,3.440265,1.475384,2.784664,3.165848,6.39412,-0.1879163,-0.439774,1.60256,0.2393613,-0.3816817,1.506081,0.06954495,0.4200883,1.656282,-0.2311538,-0.4285315,1.60555,0.2080754,-0.3695343,1.533491,0.06333783,-0.06527986,1.672675,0.06430515,-0.3886252,1.650379,-0.1177311,0.1211378,1.66683,-0.0118394,-0.3790308,1.616745,-0.1777018,-0.1262235,1.685345,0.2996755,-0.145243,1.662004,NA,NA,NotTracked,Unknown
0.7724609,0.6899414,0.4995117,0.9770508,-0.5654297,0.1879883,0,11,3,-3,-29,-8,5,0,2,-3,-1,-16,-25,-5,-3,2,-69,-69,-69,-34.375,-34.375,-34.375,6.673574,3.632435,1.595237,2.912131,3.282406,6.208493,-0.1894399,-0.4323819,1.59454,0.2256118,-0.3506888,1.490405,0.06943247,0.4202247,1.656397,-0.228963,-0.43499,1.58675,0.1862926,-0.3675252,1.50565,0.06312531,-0.06524767,1.672484,0.06386763,-0.3886003,1.649938,-0.1177791,0.1211776,1.666883,-0.01232153,-0.378797,1.61624,-0.1813131,-0.1254902,1.688038,0.3040203,-0.137485,1.665697,NA,NA,NotTracked,Unknown
0.6650391,0.5864258,0.5073242,0.9243164,-0.6381836,0.2597656,3,-1,1,6,74,13,2,0,-5,0,13,13,40,-2,-2,1,-64,-64,-64,-33.625,-33.625,-33.625,6.601748,3.736592,1.643446,2.967266,3.353857,6.125359,-0.1892969,-0.4189246,1.579803,0.1817404,-0.3306112,1.500658,0.06937488,0.4202455,1.656423,-0.2195271,-0.4231859,1.55989,0.1312391,-0.2864213,1.514109,0.06279258,-0.06512833,1.672228,0.06317084,-0.3883607,1.649422,-0.1178377,0.1211926,1.666933,-0.0130169,-0.3784036,1.615695,-0.1872052,-0.1244695,1.691419,0.3075804,-0.1311166,1.666403,NA,NA,NotTracked,Unknown
0.5493164,0.5463867,0.5327148,0.8476563,-0.6694336,0.3510742,3,-16,-12,-9,-20,-4,-2,0,-1,-5,-23,-27,52,23,2,1,-30,-30,-30,-15.3125,-15.3125,-15.3125,6.5581,3.846369,1.681229,3.063738,3.510417,5.98027,-0.1859477,-0.3971359,1.563802,0.1832254,-0.2900589,1.476649,0.06934221,0.4203044,1.656497,-0.2270205,-0.3987505,1.56212,0.1622401,-0.3407739,1.512325,0.06255043,-0.0651102,1.672038,0.06261127,-0.3883011,1.649053,-0.1178886,0.1212253,1.666981,-0.01345823,-0.3783175,1.615468,-0.1928279,-0.1207435,1.694785,0.3069281,-0.1140211,1.665404,NA,NA,NotTracked,Unknown
0.3120117,0.6655273,0.5268555,0.7773438,-0.7055664,0.3623047,2,-6,14,-9,-32,-7,-2,0,1,-1,-9,3,64,10,8,5,-26,-26,-26,-8.375,-8.375,-8.375,6.470963,4.185149,1.770309,3.115814,3.596024,5.908967,-0.1773602,-0.3687883,1.545986,0.1710164,-0.2259859,1.470808,0.06934182,0.4203429,1.6565,-0.1994358,-0.3829618,1.516296,0.1438487,-0.2690547,1.514088,0.06231374,-0.06499421,1.67192,0.06218178,-0.3880362,1.648851,-0.1179379,0.1213021,1.667062,-0.01381478,-0.3780946,1.615277,-0.1980952,-0.1147631,1.696948,0.3077031,-0.1042818,1.665089,NA,NA,NotTracked,Unknown
0.3120117,0.6655273,0.5268555,0.6938477,-0.6206055,0.4038086,-11,-6,5,6,25,-1,-1,-2,2,3,11,-1,40,-5,1,1,-26,-26,-26,-0.4375,-0.4375,-0.4375,6.470963,4.185149,1.770309,3.213494,3.78465,5.776706,-0.1483296,-0.3444282,1.538226,0.172897,-0.1877012,1.424485,0.06935106,0.4203669,1.656532,-0.1966528,-0.3509706,1.509687,0.137287,-0.219143,1.481556,0.06228399,-0.06493597,1.671883,0.06218737,-0.3879316,1.648814,-0.1180141,0.1214796,1.667204,-0.01379233,-0.3780376,1.61529,-0.2020976,-0.1088506,1.69742,0.310039,-0.09796739,1.661715,NA,NA,NotTracked,Unknown
0.1015625,0.6137695,0.5380859,0.5385742,-0.7431641,0.4941406,15,-10,-22,-6,-37,-4,-2,1,-2,4,22,43,-13,1,-8,-6,-14,-14,-14,-2.625,-2.625,-2.625,6.403939,4.512103,1.847115,3.310584,4.113545,5.592538,-0.100766,-0.2862338,1.505352,0.1582445,-0.1107396,1.422889,0.06940771,0.4204314,1.656532,-0.1119682,-0.259324,1.455,0.1270424,-0.08856574,1.505786,0.06240979,-0.06481035,1.671768,0.06283665,-0.3875249,1.648438,-0.1180839,0.1219084,1.667595,-0.01306943,-0.3778101,1.615116,-0.209459,-0.08172671,1.696265,0.3545572,-0.09708849,1.632337,NA,NA,Unknown,Unknown
0.08007813,0.7250977,0.5776367,0.4428711,-0.7236328,0.4804688,23,6,-2,-3,-3,-5,0,3,-3,-8,-6,-11,-21,-4,-4,-2,9.375,9.375,9.375,8.25,8.25,8.25,6.404328,4.779113,1.920437,3.344838,4.23481,5.533579,-0.0944297,-0.2328089,1.489302,0.148701,-0.08962341,1.43151,0.06943335,0.4204501,1.656564,-0.1143809,-0.2182415,1.436149,0.09944523,-0.08962195,1.456,0.06242142,-0.06473964,1.671713,0.06293621,-0.3872822,1.648253,-0.1181351,0.1223704,1.667909,-0.01287902,-0.3776363,1.615042,-0.2127744,-0.07646648,1.693649,0.354507,-0.09922705,1.629727,NA,NA,Unknown,Closed
0.08007813,0.7250977,0.5776367,0.2270508,-0.730957,0.4755859,8,-4,17,-1,-10,1,1,4,-3,-1,3,2,-4,-1,-9,-1,9.375,9.375,9.375,16.25,16.25,16.25,6.404328,4.779113,1.920437,3.401033,4.489409,5.433216,-0.05324738,-0.2024581,1.474074,0.1486183,-0.05960187,1.417823,0.06942493,0.4204877,1.656695,-0.07477362,-0.1753387,1.424389,0.115573,-0.08738139,1.501833,0.06234299,-0.06469908,1.671737,0.06282601,-0.3871813,1.648283,-0.1181317,0.1228011,1.668121,-0.01290465,-0.3775615,1.615167,-0.2156152,-0.07589865,1.688025,0.3549878,-0.101525,1.629538,NA,NA,Unknown,Closed
0.03369141,0.621582,0.6196289,0.1757813,-0.7255859,0.4916992,0,19,2,0,17,2,1,-3,0,-1,-12,-13,-6,18,24,2,17.1875,17.1875,17.1875,9.9375,9.9375,9.9375,6.40758,4.970118,1.990863,3.418859,4.614202,5.389666,-0.03757463,-0.1532141,1.468265,0.1442247,-0.04894595,1.427866,0.06941328,0.420489,1.656861,-0.05831766,-0.1292193,1.416462,0.1094983,-0.08990636,1.520263,0.06221049,-0.06457724,1.671811,0.06253455,-0.3868074,1.648415,-0.1181374,0.1231363,1.668393,-0.01310393,-0.3772098,1.615459,-0.2201291,-0.07419752,1.683259,0.3564926,-0.1104241,1.647663,NA,NA,Unknown,Closed
-0.01660156,0.7753906,0.6328125,0.09716797,-0.6860352,0.5097656,-6,5,7,3,5,-1,-3,0,-11,-2,-5,14,-9,-7,-2,1,15.3125,15.3125,15.3125,-0.625,-0.625,-0.625,6.425552,5.059828,2.032093,3.446403,4.944757,5.284127,-0.03247208,-0.1084564,1.479139,0.1370292,-0.03438869,1.429153,0.06934329,0.4205191,1.657142,-0.04774591,-0.08188257,1.419066,0.0980396,-0.07400706,1.522535,0.06210786,-0.06441305,1.671919,0.06237061,-0.3863986,1.64854,-0.118062,0.123255,1.668493,-0.01318141,-0.3767631,1.615685,-0.2215676,-0.07415108,1.677943,0.3553711,-0.1126519,1.65004,NA,NA,NotTracked,Closed
0.001953125,0.7568359,0.6225586,0.05664063,-0.7158203,0.3583984,2,14,1,4,10,4,-1,0,8,16,-4,-9,6,7,-9,-10,12.125,12.125,12.125,-17,-17,-17,6.432359,5.091514,2.049926,3.427812,5.105847,5.241431,-0.02695952,-0.07393557,1.472201,0.1377497,-0.02135398,1.418781,0.06935074,0.4205469,1.657447,-0.04665778,-0.05111948,1.421084,0.111345,-0.04713482,1.5145,0.06204441,-0.06429224,1.672019,0.06229698,-0.3860977,1.648667,-0.118051,0.1233256,1.668565,-0.01319721,-0.3764682,1.615846,-0.2201371,-0.07632656,1.66451,0.3536309,-0.1140734,1.649082,NA,NA,NotTracked,NotTracked
-0.04443359,0.7451172,0.6469727,-0.008789063,-0.7949219,0.4345703,-3,20,11,-3,8,-2,-1,-3,4,2,4,-18,-3,-3,-10,-8,2.8125,2.8125,2.8125,-19.5625,-19.5625,-19.5625,6.439058,5.159037,2.087203,3.41344,5.158109,5.228315,0.1100009,-0.002111857,1.414855,0.1529188,-0.02662298,1.421011,0.06943233,0.420576,1.657873,0.1190558,0.02333479,1.394448,0.09214575,-0.02518609,1.417,0.06191242,-0.06412765,1.672196,0.06212493,-0.3857196,1.648907,-0.1179835,0.1233968,1.668614,-0.0132714,-0.3760801,1.616189,-0.2165175,-0.07855396,1.654235,0.3115055,-0.09714655,1.613648,NA,NA,NotTracked,NotTracked
-0.04443359,0.7451172,0.6469727,0.03808594,-0.7226563,0.4951172,5,10,7,0,-3,5,-1,0,7,1,11,20,12,3,4,7,2.8125,2.8125,2.8125,-15.4375,-15.4375,-15.4375,6.439058,5.159037,2.087203,3.395954,5.215249,5.202368,0.100365,0.004310003,1.417189,0.150184,-0.02066606,1.421656,0.06930822,0.4207496,1.658764,0.09810983,0.03170636,1.413111,0.08568165,-0.01669622,1.415167,0.06177399,-0.06397272,1.672343,0.06197064,-0.3854472,1.649029,-0.1179744,0.1235005,1.668721,-0.01338921,-0.3758799,1.616411,-0.2135684,-0.07989743,1.647158,0.311365,-0.09710047,1.613415,NA,NA,NotTracked,NotTracked
-0.1040039,0.7456055,0.6430664,0.05322266,-0.8212891,0.5024414,7,22,2,2,-15,-3,0,1,-5,3,6,8,2,-3,-8,-3,-4.5625,-4.5625,-4.5625,-26,-26,-26,6.433379,5.208883,2.109812,3.36595,5.224621,5.18516,0.09762879,0.007616079,1.418099,0.1486205,-0.01586486,1.421389,0.06932788,0.4208785,1.659425,0.104807,0.03210349,1.394788,0.08785924,-0.01184403,1.4186,0.06172296,-0.06392929,1.67242,0.06190499,-0.3854016,1.649089,-0.1179137,0.1235936,1.668764,-0.01345499,-0.3758701,1.616609,-0.2126675,-0.08008898,1.643008,0.3110811,-0.09705999,1.612116,NA,NA,NotTracked,NotTracked
-0.1064453,0.7514648,0.6347656,-0.04492188,-0.871582,0.5708008,2,2,12,-1,1,-1,0,-1,-3,1,-1,-4,-7,-6,-14,-1,-5.5625,-5.5625,-5.5625,4.375,4.375,4.375,6.426443,5.232013,2.113494,3.362505,5.217878,5.179374,0.09225813,0.01187452,1.418945,0.1456091,-0.006552279,1.419499,0.06951284,0.4209913,1.660066,0.08473563,0.03400904,1.401404,0.1374719,-0.02747986,1.396,0.06161202,-0.06389467,1.672587,0.06178001,-0.3853703,1.649194,-0.1178288,0.1237488,1.668815,-0.01359622,-0.3758478,1.616862,-0.2129246,-0.07965618,1.640488,0.3108671,-0.09699132,1.611245,NA,NA,NotTracked,NotTracked
-0.159668,0.7739258,0.6103516,-0.08056641,-0.7978516,0.5307617,-5,0,-15,-4,1,0,-2,-1,3,0,2,0,-8,-3,4,13,-3.75,-3.75,-3.75,-6.3125,-6.3125,-6.3125,6.424068,5.240765,2.109891,3.366154,5.209218,5.184802,-0.007626255,-0.005927194,1.447465,0.1284605,0.005151013,1.420804,0.06971566,0.4212804,1.661053,-0.018576,-0.01650748,1.399888,0.09053139,-0.009994663,1.5065,0.06154397,-0.06386237,1.672702,0.0616615,-0.3853347,1.649231,-0.1177111,0.1238592,1.668891,-0.01373676,-0.3757902,1.616986,-0.2126222,-0.07939687,1.636723,0.3092907,-0.09724097,1.609594,NA,NA,NotTracked,NotTracked
-0.1420898,0.7548828,0.6166992,-0.06738281,-0.8505859,0.550293,-1,-25,-6,0,2,0,-2,-5,-15,17,9,76,10,3,4,15,-2.75,-2.75,-2.75,-13.625,-13.625,-13.625,6.416166,5.251147,2.093247,3.359981,5.203311,5.186369,-0.007676195,-0.006704159,1.446849,0.1255036,0.007992574,1.420726,0.06970463,0.4213609,1.661535,-0.02598055,-0.005439392,1.40698,0.07951818,-0.003709102,1.5,0.06148607,-0.06384615,1.672806,0.0615718,-0.3853382,1.649287,-0.1176123,0.1239691,1.66896,-0.01382801,-0.37578,1.617129,-0.212631,-0.07903924,1.634272,0.3090133,-0.09716208,1.608941,NA,NA,NotTracked,NotTracked
-0.1962891,0.8330078,0.6259766,-0.1665039,-0.9428711,0.5341797,-4,-8,1,2,1,-1,1,5,-10,-10,-15,32,13,2,-4,-5,4.5,4.5,4.5,-7.375,-7.375,-7.375,6.419526,5.257545,2.085451,3.350333,5.1867,5.184708,0.09904106,0.01798401,1.414849,0.1508543,-0.001544222,1.418918,0.07001071,0.421561,1.662719,0.09116632,0.04251711,1.403574,0.1363299,-0.02116343,1.4031,0.06131444,-0.06384042,1.673033,0.06146446,-0.3853648,1.649338,-0.1173747,0.1241624,1.669076,-0.01392835,-0.3758122,1.617304,-0.2121108,-0.07868361,1.631181,0.3086258,-0.09713881,1.608663,NA,NA,NotTracked,NotTracked
-0.2143555,0.8344727,0.6679688,-0.2133789,-0.8510742,0.4179688,1,27,11,10,0,-3,-1,-2,-6,-17,-10,-9,-6,-5,-1,-7,-10.625,-10.625,-10.625,-24.625,-24.625,-24.625,6.413626,5.261923,2.082973,3.328888,5.174006,5.188108,-0.006757078,-0.02397014,1.432916,0.1315199,0.01216576,1.418167,0.07022929,0.4217677,1.663309,-0.01787792,-0.013378,1.3936,0.06811883,-0.01484741,1.440077,0.06129432,-0.06383084,1.673115,0.06145313,-0.3853666,1.649361,-0.1172469,0.1242801,1.669079,-0.01393951,-0.3758252,1.61736,-0.212344,-0.07832483,1.630502,0.3083737,-0.09709969,1.608291,NA,NA,NotTracked,NotTracked
-0.2729492,0.6972656,0.6103516,-0.08154297,-0.9472656,0.4790039,-9,-23,-4,-2,5,3,-3,0,2,-6,-9,-25,-4,-11,-1,-2,-14.125,-14.125,-14.125,-41.9375,-41.9375,-41.9375,6.39101,5.277682,2.07237,3.279432,5.157968,5.201035,-0.02142964,-0.03416121,1.443235,0.130692,0.01218109,1.418501,0.07033645,0.4218284,1.663936,-0.02408523,-0.04908236,1.395849,0.0553117,-0.04355191,1.429269,0.06127827,-0.06383211,1.673174,0.06144213,-0.3853816,1.649372,-0.1172376,0.1243452,1.669144,-0.01396239,-0.3758686,1.617419,-0.2133029,-0.07766832,1.62941,0.3082507,-0.09700104,1.608151,NA,NA,NotTracked,NotTracked
-0.2675781,0.7792969,0.6025391,-0.09033203,-0.8525391,0.6259766,0,7,-2,1,-2,-2,-2,-1,0,-3,-12,-10,-6,-2,6,-9,18.25,18.25,18.25,15.875,15.875,15.875,6.40679,5.291616,2.044442,3.291139,5.128324,5.170633,-0.02353202,-0.03989117,1.450804,0.1378213,0.01540611,1.411242,0.07035783,0.4218125,1.664018,-0.01605934,-0.000460519,1.526182,0.0866573,0.0106778,1.4252,0.06127786,-0.06383798,1.673248,0.06148003,-0.3854131,1.649377,-0.1172175,0.124451,1.669217,-0.01391685,-0.3759269,1.61746,-0.2690049,-0.06912005,1.6192,0.3079883,-0.09698478,1.607979,NA,NA,NotTracked,NotTracked
-0.2133789,0.7724609,0.6079102,-0.1948242,-0.8920898,0.5551758,1,-4,-2,-12,0,1,3,-1,10,2,-6,-6,3,12,17,7,14.75,14.75,14.75,18.3125,18.3125,18.3125,6.41368,5.287293,2.03422,3.313897,5.148528,5.133952,0.05091919,-0.01661283,1.429762,0.1494375,0.007448503,1.40534,0.07048372,0.4218768,1.664066,0.1027368,0.03891755,1.379933,0.134308,-0.01232308,1.391122,0.06124758,-0.06387356,1.673329,0.06144478,-0.3855402,1.649413,-0.1172053,0.124518,1.669251,-0.01395627,-0.3760832,1.617585,-0.2211993,-0.07250504,1.622369,0.3080209,-0.09688818,1.607614,NA,NA,NotTracked,NotTracked
-0.1386719,0.734375,0.6572266,-0.2460938,-0.878418,0.5273438,-2,7,-5,-9,-8,-2,0,-5,-4,-2,1,5,9,25,14,1,5.3125,5.3125,5.3125,20.9375,20.9375,20.9375,6.417006,5.266891,2.024983,3.325098,5.173125,5.121526,0.03316588,-0.0104487,1.447999,0.1481051,0.001964377,1.399823,0.07094494,0.4220781,1.6645,-0.03348245,-0.000616412,1.4437,0.1267781,-0.01880288,1.3934,0.06121033,-0.06389728,1.673448,0.06139789,-0.3855984,1.649452,-0.1171383,0.1246416,1.66934,-0.01401885,-0.3762165,1.617715,-0.2217532,-0.07205772,1.622522,0.3078529,-0.09658844,1.606822,NA,NA,NotTracked,NotTracked
-0.1435547,0.7216797,0.6660156,-0.2363281,-0.8173828,0.456543,-8,-21,-1,-10,-6,-4,-2,-2,4,-1,-4,0,1,2,-8,-4,10.5,10.5,10.5,16.25,16.25,16.25,6.420114,5.255383,2.024709,3.344703,5.235659,5.115669,0.004230807,-0.008650986,1.478233,0.1364804,0.001991822,1.398978,0.07108076,0.4221194,1.664652,-0.0406593,-0.01748675,1.441821,0.1143953,-0.02177287,1.404778,0.06117913,-0.06388338,1.67353,0.06137135,-0.385599,1.649487,-0.117101,0.1247087,1.66937,-0.0140348,-0.3762218,1.61776,-0.2217112,-0.07200222,1.622607,0.3079488,-0.09650933,1.606583,NA,NA,NotTracked,NotTracked
-0.1645508,0.7900391,0.6621094,-0.1953125,-0.7905273,0.4555664,-2,10,-20,-4,-1,-3,-3,-3,6,6,25,59,8,7,4,3,-1.875,-1.875,-1.875,2.375,2.375,2.375,6.432861,5.22695,2.031354,3.352397,5.294691,5.138844,0.05411958,0.006935074,1.439254,0.1410282,-0.005618329,1.402125,0.07135285,0.4220279,1.665001,0.09113593,-0.01757949,1.387909,0.08678212,-0.01298775,1.396417,0.06117484,-0.0638593,1.67364,0.06136265,-0.3855674,1.649542,-0.1171188,0.1248167,1.66946,-0.01403403,-0.3761902,1.617906,-0.2217934,-0.07173445,1.621884,0.3076798,-0.09657534,1.606523,NA,NA,NotTracked,NotTracked
-0.1806641,0.7802734,0.6899414,-0.2021484,-0.7841797,0.4550781,5,10,7,-5,-5,0,-4,-4,4,-5,-19,-26,-3,-5,2,2,0.625,0.625,0.625,-1.9375,-1.9375,-1.9375,6.429646,5.214086,2.045118,3.354702,5.317789,5.158862,-0.006071922,0.009010212,1.477533,0.1310213,-0.00307661,1.404543,0.07141446,0.4220036,1.665059,-0.03396598,-0.005849726,1.436278,0.06934483,-0.002237832,1.4766,0.06116147,-0.06385077,1.673722,0.06134979,-0.3855528,1.649571,-0.1171279,0.1249703,1.669525,-0.01404331,-0.3761967,1.618002,-0.2219231,-0.07147057,1.621656,0.307335,-0.0963401,1.604214,NA,NA,NotTracked,NotTracked
-0.2124023,0.8291016,0.6591797,-0.2114258,-0.7758789,0.4082031,-8,-9,1,1,3,-1,0,1,-21,-2,6,-17,3,1,0,1,-6.1875,-6.1875,-6.1875,-21.375,-21.375,-21.375,6.426905,5.215024,2.049427,3.34327,5.333126,5.202008,-0.00798489,0.01235862,1.468429,0.1314103,-0.002086302,1.409454,0.07158846,0.4219982,1.665263,-0.03621302,-3.70E-05,1.429047,0.07493013,-0.006871121,1.416857,0.06114736,-0.06381329,1.673814,0.06126975,-0.3854664,1.649672,-0.1170364,0.1251715,1.669672,-0.01412812,-0.3761114,1.61815,-0.2213856,-0.07134449,1.620758,0.3071516,-0.09643737,1.604699,NA,NA,NotTracked,NotTracked
-0.1977539,0.7700195,0.668457,-0.1035156,-0.8701172,0.5039063,-2,3,-5,4,2,1,-3,1,3,-1,-11,2,-8,5,-8,-9,-5.875,-5.875,-5.875,-36.125,-36.125,-36.125,6.413629,5.227035,2.050033,3.310247,5.312783,5.24169,-0.02429048,0.009846258,1.452681,0.1395984,-0.002746237,1.410337,0.07168594,0.421972,1.665317,-0.06551649,0.01104073,1.431666,0.1280514,-0.02501891,1.394717,0.06111269,-0.06381667,1.673898,0.06122246,-0.3854673,1.649717,-0.116987,0.1254781,1.669875,-0.0141997,-0.3761388,1.618314,-0.2208132,-0.07117518,1.620075,0.3072355,-0.09642766,1.604798,NA,NA,NotTracked,NotTracked
-0.2036133,0.8208008,0.6826172,-0.06640625,-0.9038086,0.5297852,0,-21,-13,-6,3,-2,-1,4,-2,-3,-8,-7,-5,-8,3,-2,0.125,0.125,0.125,-11.3125,-11.3125,-11.3125,6.413423,5.23908,2.050062,3.2952,5.282128,5.256392,-0.0251013,0.005952268,1.444033,0.1314995,0.004269385,1.41636,0.07188492,0.4219097,1.665423,-0.04390646,0.01048526,1.412799,0.06102599,-0.005479998,1.474667,0.06111008,-0.0638098,1.673924,0.06118332,-0.3854517,1.649735,-0.1169631,0.125576,1.669907,-0.0142463,-0.3761279,1.618351,-0.2200807,-0.07137534,1.619624,0.3073345,-0.09643973,1.604772,NA,NA,NotTracked,NotTracked
-0.2524414,0.7236328,0.5961914,-0.1489258,-0.8959961,0.574707,-14,-6,-2,-8,-3,-2,0,-2,-6,-3,-6,5,0,-8,0,-2,-16.4375,-16.4375,-16.4375,18.875,18.875,18.875,6.389848,5.276785,2.064464,3.310669,5.256669,5.245459,-0.0249895,0.001500055,1.441957,0.141678,0.003112385,1.416112,0.0720892,0.421895,1.665519,-0.04125977,0.01409799,1.413496,0.1361711,-0.01900241,1.390881,0.06110927,-0.06382984,1.67399,0.06117523,-0.3854787,1.649763,-0.1168394,0.1256345,1.669943,-0.01426704,-0.3761536,1.618398,-0.2199758,-0.07126603,1.619415,0.3074917,-0.09643003,1.604952,NA,NA,NotTracked,NotTracked
-0.2524414,0.7236328,0.5961914,-0.2392578,-0.8442383,0.5107422,-4,-4,-2,4,1,-2,-5,-4,-4,0,-7,-15,-5,-1,-7,-9,-16.4375,-16.4375,-16.4375,13.625,13.625,13.625,6.389848,5.276785,2.064464,3.333273,5.253775,5.239099,-0.02315308,-0.000478709,1.443358,0.1317716,0.009246041,1.418635,0.07221048,0.4218862,1.665515,0.004452835,-0.0441648,1.5178,0.07476105,0.006588513,1.4515,0.06111658,-0.06382637,1.674056,0.06115792,-0.3854665,1.649797,-0.1167239,0.1257214,1.670038,-0.01428476,-0.3761519,1.618457,-0.2201758,-0.070963,1.619229,0.3078878,-0.09632946,1.605304,NA,NA,NotTracked,NotTracked
-0.1967773,0.8193359,0.6206055,-0.2211914,-0.8623047,0.4882813,-7,2,5,3,-1,-2,-1,-2,-3,-1,0,-6,-4,2,3,0,3.625,3.625,3.625,4.5,4.5,4.5,6.397711,5.283835,2.05967,3.335673,5.256763,5.240881,-0.02327993,-0.001043971,1.44427,0.1415113,0.005069464,1.415674,0.07231802,0.4218522,1.665558,0.003613292,-0.04301752,1.517781,0.1268726,-0.01642632,1.403575,0.06112248,-0.06383798,1.674088,0.06115684,-0.3854711,1.649805,-0.1166908,0.1257452,1.670039,-0.01428734,-0.3761607,1.618478,-0.2198029,-0.07109077,1.619055,0.3079079,-0.09630744,1.605225,NA,NA,NotTracked,NotTracked
-0.1611328,0.7202148,0.671875,-0.1801758,-0.8847656,0.480957,0,-2,-3,-3,1,-1,0,-4,-2,-4,-24,-23,6,7,-2,3,-2.0625,-2.0625,-2.0625,-5.75,-5.75,-5.75,6.392809,5.273558,2.058922,3.329839,5.260885,5.244401,-0.02220556,-0.001735443,1.44369,0.133456,0.007974069,1.416868,0.07248079,0.4217826,1.665492,-0.003614017,-0.04524763,1.523539,0.07846171,0.003819045,1.443167,0.06115134,-0.06384528,1.674124,0.06121942,-0.3854761,1.649825,-0.1166742,0.125755,1.670041,-0.0142139,-0.3761784,1.618514,-0.2198374,-0.07101659,1.618844,0.3079227,-0.09631798,1.605347,NA,NA,NotTracked,NotTracked
-0.1982422,0.7431641,0.6762695,-0.1767578,-0.8671875,0.5097656,1,11,-2,-2,4,2,1,-2,1,-1,9,1,-3,-2,-2,0,4.125,4.125,4.125,7.6875,7.6875,7.6875,6.393827,5.270288,2.060256,3.335032,5.261082,5.248538,-0.02076463,-0.002374775,1.444401,0.1329548,0.006416356,1.417486,0.07259374,0.4217409,1.665441,0.004802963,-0.04255451,1.515755,0.07651197,0.004750208,1.444282,0.06116346,-0.06384704,1.674148,0.06122258,-0.3854756,1.649828,-0.116636,0.1257988,1.670079,-0.0142129,-0.3761711,1.618539,-0.2196737,-0.07102839,1.618815,0.3081217,-0.09631775,1.605581,NA,NA,NotTracked,NotTracked
-0.2138672,0.7709961,0.659668,-0.1748047,-0.8422852,0.5185547,-5,5,0,-2,-1,1,-1,-5,-1,-1,-1,-3,-3,4,0,0,-3.375,-3.375,-3.375,6.25,6.25,6.25,6.392622,5.260684,2.062111,3.344409,5.26156,5.251804,-0.02074234,-0.003030396,1.443713,0.1317975,0.00683337,1.418762,0.07302208,0.4216119,1.665632,0.01719471,-0.04116829,1.5126,0.09356861,-0.005991824,1.4308,0.06122505,-0.06384569,1.674273,0.06128085,-0.3854642,1.649931,-0.1165527,0.1258288,1.670147,-0.01415319,-0.3761654,1.618697,-0.2191796,-0.07122798,1.618944,0.3085551,-0.09636283,1.606881,NA,NA,NotTracked,NotTracked
-0.1992188,0.7553711,0.6625977,-0.1601563,-0.84375,0.5117188,0,-5,5,0,1,-1,-2,-3,-2,-3,-11,2,-3,-5,0,-1,-5.0625,-5.0625,-5.0625,7,7,7,6.386534,5.255446,2.06283,3.352934,5.258536,5.252698,-0.02052224,-0.003537361,1.442646,0.1318894,0.006359964,1.418915,0.07305756,0.4216077,1.665627,0.01435899,-0.04244582,1.508546,0.1022939,-0.01072186,1.4269,0.06126994,-0.06386822,1.674328,0.06136602,-0.3855037,1.650023,-0.1164921,0.1258495,1.670182,-0.01404831,-0.3762332,1.618901,-0.2177042,-0.07182256,1.618253,0.30869,-0.09638862,1.607342,NA,NA,NotTracked,NotTracked
-0.2050781,0.7543945,0.6586914,-0.1547852,-0.8076172,0.5048828,2,0,-5,-3,-1,3,2,0,1,0,0,0,-3,-2,3,11,-6.5,-6.5,-6.5,11.4375,11.4375,11.4375,6.382297,5.254743,2.062721,3.364757,5.248215,5.253285,-0.02042547,-0.004648919,1.442564,0.1318198,0.006228189,1.419598,0.07316794,0.4215682,1.665569,-0.004373747,-0.05168775,1.5265,0.07583126,0.001212603,1.449727,0.06128838,-0.06388824,1.674399,0.06137343,-0.3855343,1.650082,-0.1164111,0.1258318,1.67022,-0.01404852,-0.3762498,1.618941,-0.2169091,-0.07222936,1.618394,0.308898,-0.09639686,1.607754,NA,NA,NotTracked,NotTracked
-0.1962891,0.7524414,0.6552734,-0.1357422,-0.7832031,0.4946289,0,-7,-6,-4,-3,0,-2,1,-9,-2,-20,-5,-4,-3,-1,-7,-4.125,-4.125,-4.125,14.5625,14.5625,14.5625,6.375258,5.253462,2.059006,3.382606,5.231923,5.261532,-0.01841375,-0.006563795,1.442193,0.1309503,0.005860711,1.419658,0.07334713,0.4215046,1.665621,0.02495373,-0.04210317,1.502,0.05237154,-0.009276567,1.463833,0.06133867,-0.06390806,1.674471,0.06144105,-0.3855856,1.650181,-0.1163538,0.1258333,1.670273,-0.01398682,-0.3763033,1.619093,-0.216462,-0.07242671,1.618435,0.3090232,-0.0965986,1.609298,NA,NA,NotTracked,NotTracked
-0.1894531,0.7495117,0.6474609,-0.1313477,-0.7875977,0.4858398,-4,-8,1,-2,-1,-4,-2,-1,0,26,4,1,-1,-2,-2,2,-5.3125,-5.3125,-5.3125,13.8125,13.8125,13.8125,6.371867,5.251745,2.055815,3.390609,5.217411,5.266816,-0.0196965,-0.01073014,1.439602,0.1303491,0.004433481,1.417581,0.07356528,0.421459,1.665577,0.01566889,-0.04688298,1.507232,0.06191048,-0.008063552,1.476667,0.0614189,-0.06390853,1.674501,0.06159887,-0.385553,1.650243,-0.1162378,0.1257738,1.670213,-0.01379597,-0.3762847,1.619202,-0.2161608,-0.07263647,1.618684,0.3090228,-0.0966323,1.609276,NA,NA,NotTracked,NotTracked
,,,,,,,,,,,,,,,,,,,,,,,,,,,,,,,,,,,,,,,,,,,,,,,,,,,,,,,,,,,,,,,,,,,,,,
,,,,,,,,,,,,,,,,,,,,,,,,,,,,,,,,,,,,,,,,,,,,,,,,,,,,,,,,,,,,,,,,,,,,,,
,,,,,,,,,,,,,,,,,,,,,,,,,,,,,,,,,,,,,,,,,,,,,,,,,,,,,,,,,,,,,,,,,,,,,,
,,,,,,,,,,,,,,,,,,,,,,,,,,,,,,,,,,,,,,,,,,,,,,,,,,,,,,,,,,,,,,,,,,,,,,
,,,,,,,,,,,,,,,,,,,,,,,,,,,,,,,,,,,,,,,,,,,,,,,,,,,,,,,,,,,,,,,,,,,,,,
,,,,,,,,,,,,,,,,,,,,,,,,,,,,,,,,,,,,,,,,,,,,,,,,,,,,,,,,,,,,,,,,,,,,,,
,,,,,,,,,,,,,,,,,,,,,,,,,,,,,,,,,,,,,,,,,,,,,,,,,,,,,,,,,,,,,,,,,,,,,,
,,,,,,,,,,,,,,,,,,,,,,,,,,,,,,,,,,,,,,,,,,,,,,,,,,,,,,,,,,,,,,,,,,,,,,
