ALX,ALY,ALZ,ARX,ARY,ARZ,EMG0L,EMG1L,EMG2L,EMG3L,EMG4L,EMG5L,EMG6L,EMG7L,EMG0R,EMG1R,EMG2R,EMG3R,EMG4R,EMG5R,EMG6R,EMG7R,GLX,GLY,GLZ,GRX,GRY,GRZ,ORL,OPL,OYL,ORR,OPR,OYR,,,,,,,,,,
0.925293,0.300293,0.05224609,0.9282227,-0.3603516,0.07275391,-1,-2,0,-1,-2,0,-1,0,-2,-1,0,-2,-2,0,-2,-3,-0.4375,-0.4375,-0.4375,0,0,0,7.389039,2.998112,9.067176,2.794392,3.102044,6.436809,,,,,,,,,,
0.9233398,0.3061523,0.046875,0.9228516,-0.3608398,0.06640625,-1,1,-1,0,-1,-1,2,0,-2,-3,-1,-1,0,-2,-1,-3,-0.4375,-0.4375,-0.4375,0.6875,0.6875,0.6875,7.390045,2.998658,9.064981,2.79442,3.10237,6.436823,,,,,,,,,,
0.9262695,0.3066406,0.05615234,0.9213867,-0.3598633,0.07080078,-1,-1,-1,-1,-2,0,1,1,0,0,-1,-2,-2,-1,-1,-2,0.3125,0.3125,0.3125,-0.0625,-0.0625,-0.0625,7.389106,2.999223,9.064761,2.794392,3.102044,6.436809,,,,,,,,,,
0.9233398,0.3017578,0.0546875,0.9189453,-0.3647461,0.08105469,-1,-1,0,-2,0,0,1,1,1,-1,-2,0,-2,-2,0,-4,0.6875,0.6875,0.6875,-1.1875,-1.1875,-1.1875,7.389149,2.999118,9.064991,2.795229,3.102647,6.435385,,,,,,,,,,
0.921875,0.300293,0.04980469,0.9257813,-0.3652344,0.06689453,0,0,0,-2,-1,0,-1,-3,0,-2,-1,-2,0,-1,0,-1,-0.625,-0.625,-0.625,1.0625,1.0625,1.0625,7.388902,2.999611,9.063973,2.795816,3.10267,6.435368,,,,,,,,,,
0.9287109,0.2993164,0.05224609,0.9277344,-0.3583984,0.06738281,-1,-1,0,-1,0,0,-3,0,1,-2,0,-1,-2,-2,-1,-2,-0.4375,-0.4375,-0.4375,0.125,0.125,0.125,7.387491,2.999842,9.06459,2.796183,3.102694,6.435166,,,,,,,,,,
0.9296875,0.2988281,0.05419922,0.9282227,-0.3579102,0.06787109,-2,-1,-1,0,-1,0,-2,-3,-1,-2,0,0,-1,0,-2,-1,0.125,0.125,0.125,-0.0625,-0.0625,-0.0625,7.385623,3.00001,9.066429,2.796244,3.102543,6.434966,,,,,,,,,,
0.9233398,0.3032227,0.04931641,0.9199219,-0.3569336,0.07421875,-3,-2,-3,0,-1,1,0,0,-3,-1,-2,-2,0,-3,0,-1,-0.625,-0.625,-0.625,0.125,0.125,0.125,7.382632,3.000782,9.068593,2.796244,3.102543,6.434966,,,,,,,,,,
0.9204102,0.2973633,0.05810547,0.9262695,-0.3623047,0.06933594,-2,-1,-1,-1,-1,-1,0,-1,-2,-1,-2,-1,-2,-2,8,1,-0.0625,-0.0625,-0.0625,1.25,1.25,1.25,7.378962,3.000781,9.071974,2.79677,3.102718,6.43515,,,,,,,,,,
0.9238281,0.2983398,0.05419922,0.9267578,-0.3579102,0.06933594,-2,-1,0,0,1,0,-1,-2,-1,-1,1,-1,-1,2,0,-4,0.875,0.875,0.875,0.9375,0.9375,0.9375,7.376299,3.000978,9.074507,2.796761,3.102172,6.436139,,,,,,,,,,
0.9262695,0.2993164,0.04931641,0.9301758,-0.3671875,0.0703125,1,-2,-1,-1,-2,-1,-1,0,-2,0,-2,0,-1,0,-3,-2,-0.125,-0.125,-0.125,0.875,0.875,0.875,7.375809,3.001006,9.074752,2.797396,3.102555,6.435534,,,,,,,,,,
0.9272461,0.2988281,0.04931641,0.9287109,-0.359375,0.07421875,-3,1,-1,0,0,1,2,-2,-1,-1,-1,-2,-1,0,-1,0,-0.5,-0.5,-0.5,0.5,0.5,0.5,7.373584,3.001011,9.076413,2.797396,3.102555,6.435534,,,,,,,,,,
0.9248047,0.3017578,0.05371094,0.9208984,-0.3623047,0.07324219,0,-2,-1,-2,-2,-1,-1,-2,1,-2,-1,-1,-2,-1,5,-1,0.3125,0.3125,0.3125,0,0,0,7.371683,3.001286,9.078019,2.797396,3.102555,6.435534,,,,,,,,,,
0.9223633,0.3046875,0.05078125,0.9228516,-0.3608398,0.07080078,-3,-2,-2,1,-1,1,0,-2,1,-11,-64,-10,-2,-1,1,0,-0.4375,-0.4375,-0.4375,-0.9375,-0.9375,-0.9375,7.369316,3.001231,9.080446,2.797735,3.102253,6.435318,,,,,,,,,,
0.918457,0.3007813,0.05078125,0.9111328,-0.3701172,0.05615234,0,0,0,0,0,0,-3,0,-3,-8,-52,-6,-1,2,7,-2,-0.9375,-0.9375,-0.9375,-5,-5,-5,7.367834,3.00167,9.0806,2.792544,3.104765,6.436821,,,,,,,,,,
0.925293,0.3017578,0.05078125,0.9379883,-0.3793945,0.06835938,-1,-3,-1,-2,-1,-2,-1,-1,2,1,7,1,0,-3,-2,2,-1.3125,-1.3125,-1.3125,-13.0625,-13.0625,-13.0625,7.364926,3.002439,9.081126,2.778532,3.107852,6.438135,,,,,,,,,,
0.9291992,0.3100586,0.05126953,0.9272461,-0.394043,0.06494141,-2,-2,-2,-2,-1,-3,-2,-2,-16,-46,13,-6,-7,-5,5,-14,-1.5625,-1.5625,-1.5625,-5.875,-5.875,-5.875,7.363322,3.003146,9.0807,2.770486,3.112232,6.436682,,,,,,,,,,
0.9223633,0.3041992,0.04443359,0.9750977,-0.4013672,0.07128906,-2,-1,-1,-2,-1,2,0,-1,-2,2,-18,-9,-8,-2,-5,0,-2.875,-2.875,-2.875,-15.4375,-15.4375,-15.4375,7.360149,3.003605,9.080521,2.764167,3.118687,6.431306,,,,,,,,,,
0.921875,0.3051758,0.04101563,0.9755859,-0.4506836,0.006347656,-1,0,-1,-1,-1,-4,-1,-1,-3,-2,-6,2,-9,-2,-3,25,-4.1875,-4.1875,-4.1875,1.875,1.875,1.875,7.359905,3.004904,9.07564,2.783789,3.137004,6.400165,,,,,,,,,,
0.9335938,0.3110352,0.04736328,1.062988,-0.3251953,0.05566406,1,-1,-1,0,0,-3,1,-2,-2,2,7,8,-4,-1,-1,-9,-2.75,-2.75,-2.75,-16.8125,-16.8125,-16.8125,7.36229,3.006247,9.069513,2.844702,3.162024,6.327002,,,,,,,,,,
0.9633789,0.3125,0.01269531,1.006348,-0.4638672,0.1538086,2,1,-1,3,-1,-1,-1,1,2,9,-10,-57,-104,-19,-2,-1,-6.4375,-6.4375,-6.4375,-26.625,-26.625,-26.625,7.3645,3.009689,9.061576,2.946565,3.216699,6.182775,,,,,,,,,,
1.003418,0.2875977,0.003417969,0.9941406,-0.4619141,0.1704102,-3,-3,0,-2,-2,-1,13,0,1,0,-3,-3,-14,0,-2,0,4,4,4,-25.3125,-25.3125,-25.3125,7.339147,3.020543,9.086672,3.000573,3.254251,6.10718,,,,,,,,,,
1.01123,0.2792969,0.0078125,0.9428711,-0.5385742,0.2426758,0,-5,-3,1,-1,-2,-7,9,-2,0,4,-7,-6,-3,0,7,13.125,13.125,13.125,-28.3125,-28.3125,-28.3125,7.312099,3.030678,9.123271,3.09547,3.350087,5.963686,,,,,,,,,,
1.019043,0.3666992,0.07568359,0.8803711,-0.6147461,0.2998047,1,-8,-16,-5,0,1,-4,2,-1,0,-9,5,-5,0,-1,-4,28.5,28.5,28.5,-21.0625,-21.0625,-21.0625,7.216349,3.071252,9.256116,3.180165,3.472288,5.833695,,,,,,,,,,
0.9775391,0.4414063,0.1704102,0.7866211,-0.6748047,0.3691406,0,-9,-17,-6,-1,1,-2,-1,0,-1,0,7,23,-9,-6,-2,22.8125,22.8125,22.8125,-5.4375,-5.4375,-5.4375,7.083427,3.142463,9.427223,3.259485,3.61692,5.721378,,,,,,,,,,
0.9467773,0.5332031,0.2182617,0.605957,-0.6875,0.4526367,-2,2,4,-3,-1,-6,-3,-2,-2,-2,-3,1,19,0,0,-1,24.375,24.375,24.375,13.25,13.25,13.25,6.961964,3.242994,9.590932,3.374818,3.859798,5.576422,,,,,,,,,,
0.9082031,0.5942383,0.2729492,0.5327148,-0.7119141,0.4707031,-2,11,-9,0,-2,1,21,0,1,1,2,-1,-10,23,9,2,7.1875,7.1875,7.1875,23.3125,23.3125,23.3125,6.846719,3.37471,9.734965,3.416231,3.942449,5.531946,,,,,,,,,,
0.7885742,0.65625,0.394043,0.4174805,-0.6235352,0.515625,-1,2,15,-20,9,-1,2,-4,1,1,-4,3,0,1,-6,-1,10,10,10,14.375,14.375,14.375,6.719913,3.61498,9.904333,3.513606,4.182339,5.418449,,,,,,,,,,
0.6777344,0.6899414,0.4458008,0.359375,-0.6733398,0.5429688,-2,5,4,-9,18,1,-5,-4,1,1,-1,-8,-19,-10,1,0,-1.5,-1.5,-1.5,7.875,7.875,7.875,6.667254,3.802788,9.984506,3.554958,4.335522,5.353153,,,,,,,,,,
0.550293,0.6870117,0.4584961,0.3193359,-0.6982422,0.5639648,-4,-8,-4,7,-18,-4,-3,1,0,1,-3,0,9,-7,-5,-1,-8.3125,-8.3125,-8.3125,3.5625,3.5625,3.5625,6.616564,4.001498,0.04699353,3.568961,4.406997,5.322144,,,,,,,,,,
0.4960938,0.6391602,0.4731445,0.2753906,-0.684082,0.5737305,3,-6,-11,-47,-19,-1,6,5,-3,-2,3,4,10,-2,-2,0,-7.9375,-7.9375,-7.9375,18.875,18.875,18.875,6.597667,4.103048,0.07222142,3.604754,4.540789,5.26899,,,,,,,,,,
0.4960938,0.6391602,0.4731445,0.2802734,-0.6650391,0.5961914,-3,-1,2,33,-18,-10,0,-4,-2,-1,-1,-5,-7,5,0,1,-7.9375,-7.9375,-7.9375,3.9375,3.9375,3.9375,6.597667,4.103048,0.07222142,3.626805,4.647939,5.221898,,,,,,,,,,
0.1943359,0.6782227,0.4741211,0.3041992,-0.7192383,0.6464844,1,-3,-4,-2,14,0,-9,-2,0,-1,1,-1,9,3,-4,-2,-0.125,-0.125,-0.125,4.625,4.625,4.625,6.550008,4.561587,0.1499929,3.63884,4.738138,5.182926,,,,,,,,,,
0.1806641,0.6835938,0.4785156,0.159668,-0.722168,0.6401367,-3,-6,-2,0,-3,-4,4,2,1,-3,-9,-4,-1,2,2,-1,2.25,2.25,2.25,9.375,9.375,9.375,6.548581,4.631111,0.1596801,3.661011,4.839165,5.152754,,,,,,,,,,
0.2392578,0.6660156,0.5170898,0.1811523,-0.7119141,0.6225586,-3,1,1,2,-6,-6,-12,-6,-3,-1,-1,4,3,-4,0,2,9,9,9,7.75,7.75,7.75,6.550277,4.73662,0.1766106,3.668948,4.881435,5.149933,,,,,,,,,,
0.1962891,0.6953125,0.5424805,0.1811523,-0.7119141,0.6225586,-5,-2,-10,-2,-12,-2,0,0,1,-1,-2,-3,2,3,0,-2,15.8125,15.8125,15.8125,7.75,7.75,7.75,6.555433,4.779268,0.1858007,3.668948,4.881435,5.149933,,,,,,,,,,
0.1181641,0.8579102,0.5102539,0.08886719,-0.6987305,0.6772461,-8,-7,-7,-6,-14,0,3,-2,1,3,-5,-4,-8,-22,-10,-1,8.625,8.625,8.625,-5,-5,-5,6.585264,4.859127,0.1969753,3.672399,4.915928,5.144831,,,,,,,,,,
-0.05957031,0.84375,0.5380859,-0.06738281,-0.7651367,0.5107422,-2,-2,1,18,-10,-2,4,-1,0,1,12,27,7,13,-1,-2,5.5625,5.5625,5.5625,6.3125,6.3125,6.3125,6.584743,4.896007,0.1927853,3.667601,4.934479,5.130615,,,,,,,,,,
-0.1835938,0.8564453,0.5019531,-0.6025391,-0.8251953,0.4833984,-1,-7,-6,4,0,-3,-8,-11,1,0,-22,-8,-4,-3,4,-2,11.625,11.625,11.625,18.3125,18.3125,18.3125,6.592614,4.922159,0.1957212,3.677742,4.962429,5.120006,,,,,,,,,,
0.05566406,1.05957,0.2172852,0.5419922,-0.7739258,1.163574,-15,9,20,-5,-6,2,1,-9,-1,-2,4,-6,6,11,1,-1,-1.375,-1.375,-1.375,-6.25,-6.25,-6.25,6.671352,5.025294,0.1626528,3.694259,4.978299,5.114327,,,,,,,,,,
0.05566406,1.05957,0.2172852,0.5419922,-0.7739258,1.163574,-15,9,20,-5,-6,2,1,-9,-1,-2,4,-6,6,11,1,-1,-1.375,-1.375,-1.375,-6.25,-6.25,-6.25,6.671352,5.025294,0.1626528,3.694259,4.978299,5.114327,,,,,,,,,,
0.1640625,0.612793,0.9365234,0.01220703,-0.9492188,0.9658203,3,0,-3,-4,0,-3,-7,0,-2,-4,1,-2,-3,-2,3,-2,-6.5625,-6.5625,-6.5625,0.75,0.75,0.75,6.647998,5.037743,0.1442677,3.704116,5.002342,5.110933,,,,,,,,,,
-0.3823242,0.7431641,0.1186523,-0.2246094,-0.5219727,0.3339844,0,10,11,10,12,30,14,10,0,-1,2,-1,-3,-5,0,1,-0.75,-0.75,-0.75,0.125,0.125,0.125,6.657797,5.065085,0.129165,3.69015,5.082235,5.115977,,,,,,,,,,
-0.0859375,0.7705078,0.5429688,-0.6899414,-0.8251953,-0.0234375,3,5,6,10,-13,-32,-59,1,-3,-1,-2,7,7,9,0,-1,8.9375,8.9375,8.9375,-22.0625,-22.0625,-22.0625,6.67221,5.055536,0.08361651,3.653995,5.124734,5.132612,,,,,,,,,,
0.1264648,0.7182617,0.6079102,-0.3955078,-0.6728516,0.2290039,-2,2,4,-41,9,-8,11,6,0,1,2,2,4,-9,-7,2,33.25,33.25,33.25,-1.3125,-1.3125,-1.3125,6.683694,5.025688,0.05731705,3.645594,5.135886,5.146651,,,,,,,,,,
0.02099609,0.9174805,0.5336914,0.5307617,-0.5478516,1.192383,-2,5,2,-12,17,-7,-15,11,-3,-2,3,0,1,-3,-3,-1,98,98,98,-19.1875,-19.1875,-19.1875,6.736001,5.016308,0.04465894,3.643258,5.126753,5.161431,,,,,,,,,,
0.2294922,1.085449,0.4946289,-0.5288086,-0.8066406,-0.05957031,-10,-11,-7,-9,16,1,-7,-32,2,-2,0,1,-1,-6,-2,-1,-19.75,-19.75,-19.75,-21.125,-21.125,-21.125,6.821077,4.971305,0.08366207,3.609055,5.131454,5.173741,,,,,,,,,,
-0.01367188,0.7724609,0.5136719,-0.1479492,-0.8227539,0.8691406,21,42,12,7,8,1,8,8,-1,0,-5,-8,7,6,-5,-3,-32.25,-32.25,-32.25,-15.5,-15.5,-15.5,6.772912,4.957716,0.1501972,3.57907,5.133208,5.181726,,,,,,,,,,
-0.01855469,0.8676758,0.5361328,0.001464844,-0.737793,0.706543,9,-2,-7,3,4,2,1,11,-3,0,-5,-2,-8,-10,0,-3,-39.0625,-39.0625,-39.0625,-10.4375,-10.4375,-10.4375,6.747081,4.958262,0.1766075,3.575891,5.102129,5.187037,,,,,,,,,,
-0.1298828,0.840332,0.6132813,-0.01025391,-0.7856445,0.6835938,9,11,6,3,10,6,5,1,-2,-3,1,11,10,-5,-4,1,-72,-72,-72,-12.75,-12.75,-12.75,6.625931,4.995626,0.2125928,3.566991,5.077298,5.187932,,,,,,,,,,
-0.2128906,0.7670898,0.5791016,-0.02929688,-0.8251953,0.6894531,-8,-10,-1,27,6,2,3,-6,0,0,1,4,-3,-4,-5,-1,-41.625,-41.625,-41.625,4,4,4,6.559268,5.060428,0.1896853,3.568053,5.062662,5.183732,,,,,,,,,,
-0.1494141,0.7460938,0.5678711,-0.08544922,-0.7709961,0.6572266,-4,-10,-14,-11,-72,-76,7,-8,-3,-3,-3,0,-4,-1,-10,-9,-10.375,-10.375,-10.375,10.75,10.75,10.75,6.550381,5.088321,0.1648614,3.581885,5.061462,5.176854,,,,,,,,,,
-0.1831055,0.871582,0.3759766,-0.09033203,-0.7700195,0.6469727,0,-1,6,1,-9,19,-2,2,0,-3,-10,-8,-6,-8,-1,-1,56.875,56.875,56.875,2.4375,2.4375,2.4375,6.586993,5.150434,0.0794936,3.587985,5.06743,5.174843,,,,,,,,,,
0.1748047,1.040039,0.5537109,-0.06103516,-0.8056641,0.6328125,-1,-13,-3,-53,-19,-1,-7,1,0,0,-6,-9,-4,-5,1,-2,51.5,51.5,51.5,1.3125,1.3125,1.3125,6.6688,5.141991,0.0293524,3.58805,5.073662,5.176629,,,,,,,,,,
0.08154297,1.055176,0.6005859,0.00390625,-0.7592773,0.6542969,-5,-4,-8,-9,27,10,-1,-4,1,-1,-3,-1,-1,0,0,-2,-18.6875,-18.6875,-18.6875,0.25,0.25,0.25,6.65941,5.124121,0.0336409,3.589798,5.074427,5.181649,,,,,,,,,,
-0.1689453,0.7583008,0.5791016,-0.02294922,-0.809082,0.652832,-1,-22,-23,-27,2,2,-5,1,1,0,0,-1,0,-5,9,8,24.5,24.5,24.5,-1.3125,-1.3125,-1.3125,6.62074,5.094416,0.07251269,3.588599,5.076832,5.186982,,,,,,,,,,
-0.1347656,0.9296875,0.5180664,-0.02392578,-0.7675781,0.6591797,-1,-3,0,1,9,3,1,-2,0,1,-1,2,-7,-34,-6,1,-1.0625,-1.0625,-1.0625,-5.9375,-5.9375,-5.9375,6.636636,5.090782,0.08273698,3.584785,5.074117,5.190661,,,,,,,,,,
-0.1367188,0.8574219,0.5322266,-0.04394531,-0.7871094,0.6733398,-3,-8,-6,-6,0,-2,3,2,-1,-1,-1,1,-3,1,5,1,-19.5625,-19.5625,-19.5625,1.8125,1.8125,1.8125,6.625587,5.089202,0.08137485,3.585954,5.070622,5.182607,,,,,,,,,,
-0.08398438,0.8452148,0.581543,-0.08544922,-0.7861328,0.637207,-2,5,4,4,-10,-2,-1,-1,-2,-1,-2,-2,0,2,-4,-3,-2.4375,-2.4375,-2.4375,7.0625,7.0625,7.0625,6.605972,5.087685,0.06595859,3.592861,5.07055,5.175284,,,,,,,,,,
-0.05859375,0.8720703,0.5600586,-0.05371094,-0.7539063,0.6328125,1,3,1,16,9,4,0,-3,-2,-2,1,1,3,-22,-1,-5,1.3125,1.3125,1.3125,-0.8125,-0.8125,-0.8125,6.605159,5.088181,0.06063762,3.595397,5.069329,5.17714,,,,,,,,,,
-0.06298828,0.8793945,0.5444336,-0.03417969,-0.8056641,0.6557617,0,3,2,4,-9,-6,1,2,-1,0,3,0,2,5,0,-1,2.75,2.75,2.75,0.0625,0.0625,0.0625,6.606812,5.088778,0.05793662,3.59391,5.065866,5.180078,,,,,,,,,,
-0.06689453,0.8457031,0.5498047,-0.03320313,-0.7651367,0.6694336,-2,1,5,24,11,1,4,3,-2,-1,-2,-1,-4,-8,-4,-1,-0.1875,-0.1875,-0.1875,8.5625,8.5625,8.5625,6.605701,5.089627,0.05680537,3.603556,5.064875,5.180697,,,,,,,,,,
-0.06689453,0.8457031,0.5498047,-0.04492188,-0.7524414,0.6582031,-2,-3,-4,-11,24,4,-2,3,0,-3,-3,-2,-3,-2,1,-3,-0.1875,-0.1875,-0.1875,-3.4375,-3.4375,-3.4375,6.605701,5.089627,0.05680537,3.606241,5.06661,5.178362,,,,,,,,,,
-0.09033203,0.8466797,0.5517578,-0.03955078,-0.7866211,0.6660156,-1,4,3,14,0,1,-3,-7,1,-1,0,-5,-2,-5,-3,-1,-0.8125,-0.8125,-0.8125,-2.1875,-2.1875,-2.1875,6.602575,5.092428,0.053343,3.602536,5.065861,5.174438,,,,,,,,,,
-0.1811523,0.8476563,0.5268555,-0.05761719,-0.7421875,0.6469727,-2,7,1,-8,0,1,1,-2,-1,0,0,0,-1,0,1,0,2.875,2.875,2.875,3.25,3.25,3.25,6.602941,5.097301,0.04207383,3.607241,5.063964,5.170563,,,,,,,,,,
-0.2763672,0.8686523,0.4545898,-0.04492188,-0.7744141,0.6162109,2,1,-1,-3,0,-2,-2,-2,-1,0,-3,-2,-2,0,7,-1,4.0625,4.0625,4.0625,4.1875,4.1875,4.1875,6.608113,5.107447,0.0414425,3.610116,5.056826,5.171301,,,,,,,,,,
0.1157227,1.056641,0.1503906,-0.04589844,-0.6958008,0.5595703,-1,-1,0,-2,0,0,0,-3,-2,-2,2,-1,1,2,4,2,2.0625,2.0625,2.0625,1.25,1.25,1.25,6.618105,5.069485,0.03937582,3.613795,5.03612,5.19227,,,,,,,,,,
-0.1074219,0.7045898,0.4985352,-0.02734375,-0.6791992,0.5356445,-1,-3,-3,-1,-3,-1,-6,-6,0,2,2,-4,-3,0,-1,0,-23.875,-23.875,-23.875,-27.75,-27.75,-27.75,6.584252,5.040138,0.03153361,3.592352,4.992148,5.227891,,,,,,,,,,
-0.08398438,0.6313477,0.484375,0.08984375,-0.7514648,0.5717773,-1,4,3,3,1,1,-1,-7,3,0,0,1,1,0,-14,0,5.6875,5.6875,5.6875,-44.25,-44.25,-44.25,6.57574,4.980736,9.998875,3.542166,4.916671,5.270508,,,,,,,,,,
0.09277344,0.7304688,0.4692383,0.05517578,-0.7612305,0.5229492,1,3,0,-2,-1,-1,2,-6,-3,-17,-13,0,0,-4,-2,1,24.5,24.5,24.5,-19.0625,-19.0625,-19.0625,6.600875,4.864544,9.962741,3.508884,4.817978,5.312322,,,,,,,,,,
0.09570313,0.6904297,0.4624023,0.1982422,-0.6713867,0.4931641,-4,4,1,2,2,-2,0,-2,0,3,5,4,-2,3,5,3,8.125,8.125,8.125,-36.0625,-36.0625,-36.0625,6.61586,4.708034,9.933839,3.470634,4.677711,5.357191,,,,,,,,,,
0.1166992,0.6723633,0.4277344,0.3378906,-0.7910156,0.5512695,-16,-1,1,-2,-3,-8,-2,1,-2,3,1,2,-1,-3,1,-1,9.8125,9.8125,9.8125,-30.375,-30.375,-30.375,6.625198,4.614763,9.915148,3.4158,4.520959,5.407914,,,,,,,,,,
0.4741211,0.7397461,0.40625,0.3720703,-0.703125,0.4414063,-3,-1,0,1,-2,0,0,-3,2,0,-2,-1,-6,-4,2,-1,58.875,58.875,58.875,4.875,4.875,4.875,6.732279,4.302283,9.817238,3.396329,4.351102,5.467008,,,,,,,,,,
0.5517578,0.7949219,0.375,0.6289063,-0.6279297,0.4257813,-6,-3,-1,-2,-3,-5,-1,-2,-1,3,-7,-4,-5,0,1,-1,21.3125,21.3125,21.3125,-18.0625,-18.0625,-18.0625,6.809524,4.086627,9.736833,3.350421,4.158688,5.536631,,,,,,,,,,
0.6220703,0.6713867,0.3745117,0.5927734,-0.6787109,0.3896484,3,-1,-1,-1,-1,0,0,1,-3,-37,3,7,16,3,0,-2,2.8125,2.8125,2.8125,2.8125,2.8125,2.8125,6.836595,3.972806,9.691682,3.303,3.968075,5.619398,,,,,,,,,,
0.8291016,0.581543,0.2612305,0.7988281,-0.6123047,0.3393555,2,-1,0,2,-3,4,-4,-4,1,2,-3,-5,-9,-5,-5,0,30.625,30.625,30.625,-9.625,-9.625,-9.625,7.003781,3.636889,9.495756,3.22155,3.766954,5.736882,,,,,,,,,,
0.9560547,0.6425781,0.1655273,0.9663086,-0.6220703,0.3095703,-12,-4,-1,-2,0,4,1,-2,-2,2,8,5,5,0,-2,0,-1.125,-1.125,-1.125,3.8125,3.8125,3.8125,7.179873,3.432901,9.289142,3.117023,3.576021,5.875556,,,,,,,,,,
