ALX,ALY,ALZ,ARX,ARY,ARZ,EMG0L,EMG1L,EMG2L,EMG3L,EMG4L,EMG5L,EMG6L,EMG7L,EMG0R,EMG1R,EMG2R,EMG3R,EMG4R,EMG5R,EMG6R,EMG7R,GLX,GLY,GLZ,GRX,GRY,GRZ,ORL,OPL,OYL,ORR,OPR,OYR,,,,,,,,,,,
0.9345703,0.277832,0.02197266,0.9384766,-0.3457031,0.04492188,0,1,1,-1,-2,-2,1,4,-2,-2,0,-2,-1,0,1,-3,0.1875,0.1875,0.1875,-1.5625,-1.5625,-1.5625,7.487461,2.962115,8.031075,2.663521,3.060009,6.548748,,,,,,,,,,,
0.9365234,0.2807617,0.02539063,0.9399414,-0.3427734,0.03515625,-5,-1,-1,-1,-2,1,-2,-14,-1,1,1,0,-2,-2,1,0,0.375,0.375,0.375,-0.4375,-0.4375,-0.4375,7.490201,2.961733,8.028956,2.666019,3.060385,6.545369,,,,,,,,,,,
0.9345703,0.2763672,0.03369141,0.9394531,-0.3369141,0.03125,-1,-2,-2,-1,-1,0,1,-10,0,-1,2,-4,-2,-4,0,2,0.125,0.125,0.125,-1.375,-1.375,-1.375,7.493271,2.96149,8.025472,2.668504,3.061458,6.541737,,,,,,,,,,,
0.9326172,0.2753906,0.03125,0.940918,-0.3393555,0.03320313,2,1,1,0,0,-1,-7,15,-1,-2,-2,-3,0,0,-2,-1,-0.1875,-0.1875,-0.1875,-1.625,-1.625,-1.625,7.495805,2.961244,8.020838,2.668649,3.061339,6.539376,,,,,,,,,,,
0.9311523,0.2783203,0.03027344,0.9379883,-0.340332,0.0390625,-1,-1,-3,-1,-1,-1,1,-6,0,0,-2,-1,0,0,-4,0,0,0,0,-1.375,-1.375,-1.375,7.496431,2.96152,8.019443,2.669132,3.061765,6.537014,,,,,,,,,,,
0.9331055,0.2832031,0.03076172,0.9365234,-0.3378906,0.03173828,-1,-1,-1,0,1,0,-1,-4,-1,0,3,0,0,-3,-1,-1,-0.5625,-0.5625,-0.5625,-1.9375,-1.9375,-1.9375,7.498306,2.961141,8.017391,2.668016,3.061231,6.535983,,,,,,,,,,,
0.9326172,0.2792969,0.02929688,0.9384766,-0.3369141,0.02832031,-1,0,-2,-2,-1,0,-1,-8,-3,-2,-1,-1,-2,0,-3,-3,-0.375,-0.375,-0.375,-1.875,-1.875,-1.875,7.499315,2.961363,8.014346,2.665174,3.060919,6.536565,,,,,,,,,,,
0.9296875,0.2753906,0.02685547,0.9355469,-0.3334961,0.03710938,-4,-3,-2,0,-1,-2,5,-5,-2,-3,-13,0,-2,-3,-4,-1,-0.4375,-0.4375,-0.4375,-2.125,-2.125,-2.125,7.499363,2.96105,8.013762,2.663836,3.059871,6.535503,,,,,,,,,,,
0.934082,0.2773438,0.01953125,0.9443359,-0.3383789,0.03076172,-2,0,-2,0,0,-1,-1,2,1,-1,0,-2,0,-1,0,0,-0.3125,-0.3125,-0.3125,-2.5625,-2.5625,-2.5625,7.502842,2.960341,8.00862,2.658866,3.059389,6.537902,,,,,,,,,,,
0.9345703,0.284668,0.02539063,0.9414063,-0.3393555,0.04199219,-2,-1,-1,-2,0,0,-1,0,0,-1,1,-4,-3,-3,-2,-1,0.375,0.375,0.375,0.5625,0.5625,0.5625,7.505309,2.960427,8.005455,2.657637,3.058814,6.538144,,,,,,,,,,,
0.9311523,0.2773438,0.02050781,0.9335938,-0.3291016,0.03320313,-1,-1,0,0,-2,0,-2,3,-2,-2,-4,-2,-1,0,-4,0,-0.5625,-0.5625,-0.5625,0.3125,0.3125,0.3125,7.506282,2.960236,8.003755,2.657275,3.05809,6.539525,,,,,,,,,,,
0.9243164,0.28125,0.02099609,0.9423828,-0.3339844,0.04052734,0,-1,-2,0,-1,1,-3,3,-1,-1,0,-1,-1,-2,-1,0,0.9375,0.9375,0.9375,-0.6875,-0.6875,-0.6875,7.510885,2.959523,8.000011,2.655961,3.057667,6.540573,,,,,,,,,,,
0.9345703,0.284668,0.02539063,0.9355469,-0.331543,0.03027344,-1,-2,0,0,-2,0,0,0,-2,-2,2,3,-2,-3,0,-2,0.375,0.375,0.375,1.125,1.125,1.125,7.514287,2.959446,7.996027,2.654019,3.056357,6.543633,,,,,,,,,,,
0.9291992,0.2797852,0.01806641,0.9375,-0.3334961,0.03662109,-1,-3,-1,0,1,-1,2,-4,-3,3,9,7,0,0,-1,-3,0.0625,0.0625,0.0625,-0.6875,-0.6875,-0.6875,7.517403,2.959061,7.992677,2.649298,3.054327,6.548412,,,,,,,,,,,
0.9311523,0.2832031,0.02001953,0.9335938,-0.3354492,0.03759766,-3,0,-1,1,-1,2,3,2,4,-3,0,-3,1,-1,-1,0,1.5625,1.5625,1.5625,-0.8125,-0.8125,-0.8125,7.522624,2.958681,7.987937,2.643079,3.053049,6.554247,,,,,,,,,,,
0.9291992,0.2763672,0.02929688,0.9423828,-0.3632813,0.05273438,-2,-1,1,0,-1,-2,-2,4,-1,-65,-7,0,-1,-2,-12,-1,-1.5,-1.5,-1.5,-6.625,-6.625,-6.625,7.521539,2.958369,7.987276,2.622557,3.054235,6.567222,,,,,,,,,,,
0.9282227,0.2827148,0.02441406,0.9526367,-0.3637695,0.05029297,5,-4,-2,-2,-2,-6,-3,-12,18,31,1,5,-2,-4,-6,7,0.5,0.5,0.5,-9,-9,-9,7.523527,2.957378,7.984922,2.616528,3.057889,6.564142,,,,,,,,,,,
0.9296875,0.2822266,0.02685547,0.9433594,-0.3764648,0.02832031,2,1,2,0,-1,-4,-2,4,1,22,0,-8,-29,-6,-7,0,-0.6875,-0.6875,-0.6875,-1.5625,-1.5625,-1.5625,7.525443,2.957311,7.982099,2.627991,3.062523,6.547546,,,,,,,,,,,
0.9345703,0.2700195,0.02099609,0.9677734,-0.3793945,0.004394531,21,2,-2,-2,-2,-3,0,5,-3,-18,-8,0,-27,-8,7,9,0,0,0,10.3125,10.3125,10.3125,7.527791,2.957209,7.977143,2.6672,3.077186,6.510827,,,,,,,,,,,
0.9370117,0.2749023,0.01953125,1.044434,-0.3569336,0.005371094,-14,10,35,15,-1,-2,-2,-4,2,-6,-4,10,25,-2,-5,5,0.9375,0.9375,0.9375,9.375,9.375,9.375,7.531132,2.957281,7.974377,2.741711,3.105337,6.442153,,,,,,,,,,,
0.9799805,0.2978516,-0.02441406,1.028809,-0.4086914,0.1069336,-6,0,1,2,0,-2,0,2,-1,3,1,10,24,10,3,3,-5.4375,-5.4375,-5.4375,-9.5,-9.5,-9.5,7.509731,2.968303,7.993386,2.872638,3.16239,6.293378,,,,,,,,,,,
0.9985352,0.3085938,-0.03857422,0.9785156,-0.5048828,0.2163086,-4,-4,-8,2,2,-1,-3,2,4,4,6,4,-21,-5,4,4,-6.375,-6.375,-6.375,-18.5625,-18.5625,-18.5625,7.479163,2.978676,8.021969,3.014911,3.257087,6.115,,,,,,,,,,,
1.036133,0.3862305,0.0625,0.9204102,-0.5708008,0.2734375,-2,-6,-32,-9,-3,-3,-11,-3,4,-1,-1,14,6,-9,-1,0,-2.125,-2.125,-2.125,-18.125,-18.125,-18.125,7.274912,3.047408,8.235359,3.137357,3.381873,5.951462,,,,,,,,,,,
1.020508,0.4882813,0.1948242,0.8325195,-0.6494141,0.3725586,-1,-9,-18,-16,-7,-6,-17,-5,-2,-3,1,3,-8,-14,-5,-3,18.125,18.125,18.125,-15.625,-15.625,-15.625,7.028031,3.195382,8.518832,3.23752,3.534752,5.808233,,,,,,,,,,,
1.010742,0.6015625,0.2363281,0.7338867,-0.6928711,0.4301758,-4,-2,3,-1,3,-3,1,1,1,-1,0,-6,3,-1,3,1,13.3125,13.3125,13.3125,-4.8125,-4.8125,-4.8125,6.89585,3.348066,8.686585,3.327957,3.703927,5.680288,,,,,,,,,,,
0.9506836,0.6455078,0.3134766,0.6660156,-0.6494141,0.4448242,5,3,18,15,-4,1,6,1,-1,-2,1,-7,-21,-14,-7,-2,9,9,9,0.1875,0.1875,0.1875,6.838296,3.439009,8.760219,3.408771,3.88143,5.561737,,,,,,,,,,,
0.6879883,0.7255859,0.409668,0.5131836,-0.6464844,0.4794922,-2,12,11,-36,-9,-2,-3,-1,3,-4,18,-4,-12,-4,4,0,-3.875,-3.875,-3.875,-7,-7,-7,6.710348,3.751808,8.93292,3.46943,4.066049,5.45418,,,,,,,,,,,
0.5361328,0.6494141,0.4667969,0.456543,-0.7006836,0.5224609,2,6,6,16,0,0,3,1,-2,-2,-9,-9,7,9,-1,0,-13.8125,-13.8125,-13.8125,-10.25,-10.25,-10.25,6.646803,3.98191,9.009737,3.501501,4.248024,5.363163,,,,,,,,,,,
0.3613281,0.6958008,0.496582,0.3549805,-0.7021484,0.5322266,-2,-2,-22,19,-20,0,5,1,-3,1,0,18,44,7,-6,-5,8.375,8.375,8.375,10.875,10.875,10.875,6.617983,4.215289,9.070047,3.540144,4.43074,5.283572,,,,,,,,,,,
0.2563477,0.7128906,0.4599609,0.2392578,-0.6660156,0.5576172,0,-8,-10,-8,-18,-4,1,1,-5,-1,-5,-4,-12,-8,-4,-5,3.5,3.5,3.5,0.125,0.125,0.125,6.609363,4.442376,9.10473,3.56751,4.600281,5.212343,,,,,,,,,,,
0.1860352,0.7456055,0.4804688,0.2197266,-0.6972656,0.5830078,-1,14,22,37,6,-2,-3,0,2,0,-1,-1,-3,-5,-9,-2,5.125,5.125,5.125,-8.625,-8.625,-8.625,6.607515,4.546908,9.119907,3.571622,4.750176,5.151392,,,,,,,,,,,
0.1630859,0.6757813,0.4731445,0.3305664,-0.6425781,0.3422852,1,-2,0,5,3,-1,-3,-1,-3,-1,-3,-4,-4,-26,-7,-3,6.875,6.875,6.875,-2.8125,-2.8125,-2.8125,6.606709,4.727395,9.147535,3.566996,4.864449,5.113698,,,,,,,,,,,
0.1025391,0.7319336,0.5107422,0.8681641,-0.640625,0.9262695,-3,-3,0,3,2,3,-2,-5,-2,-2,-1,6,9,16,-2,-3,12.8125,12.8125,12.8125,-8,-8,-8,6.626135,4.92388,9.176207,3.575159,4.950986,5.086043,,,,,,,,,,,
-0.0390625,0.7490234,0.4711914,0.1704102,-0.5693359,0.2919922,-2,-9,-7,-8,2,-2,-2,0,-2,-2,0,4,3,21,5,-1,11.1875,11.1875,11.1875,9.3125,9.3125,9.3125,6.634753,5.005792,9.190924,3.578317,4.998209,5.069579,,,,,,,,,,,
-0.1782227,0.9140625,0.4746094,0.02050781,-0.7382813,0.6411133,1,3,6,13,10,-2,-3,-2,-1,-1,12,17,4,5,-2,-2,11.875,11.875,11.875,-9.5625,-9.5625,-9.5625,6.657743,5.072299,9.218919,3.575431,5.055089,5.065811,,,,,,,,,,,
0.03027344,0.7768555,0.5605469,-0.006347656,-0.7817383,0.5839844,-3,-17,-23,-21,-7,-4,6,-4,1,1,-4,-6,1,0,-2,1,1.25,1.25,1.25,9.4375,9.4375,9.4375,6.655276,5.082571,9.228647,3.57833,5.083184,5.066611,,,,,,,,,,,
-0.03417969,0.7973633,0.5297852,-0.015625,-0.7519531,0.6318359,-1,1,-6,-7,0,-2,-3,-1,-1,-1,-4,-2,-6,-8,-2,-7,1.875,1.875,1.875,-13.4375,-13.4375,-13.4375,6.65487,5.091909,9.248091,3.573934,5.09644,5.081759,,,,,,,,,,,
-0.1181641,0.8120117,0.5297852,-0.03710938,-0.8242188,0.6621094,-2,1,-4,-2,2,0,4,1,-2,-5,-9,-11,-8,-7,-3,-3,-11.6875,-11.6875,-11.6875,-5.5,-5.5,-5.5,6.636784,5.111027,9.257436,3.562938,5.092353,5.083101,,,,,,,,,,,
-0.1601563,0.7963867,0.5214844,-0.1108398,-0.7871094,0.6328125,3,4,4,8,-20,-8,-3,-2,2,1,-5,-7,4,2,-3,-1,-2.6875,-2.6875,-2.6875,10.6875,10.6875,10.6875,6.633644,5.117833,9.255277,3.57552,5.092333,5.074691,,,,,,,,,,,
-0.1601563,0.7963867,0.5214844,-0.1108398,-0.7871094,0.6328125,3,4,4,8,-20,-8,-3,-2,2,1,-5,-7,4,2,-3,-1,-2.6875,-2.6875,-2.6875,10.6875,10.6875,10.6875,6.633644,5.117833,9.255277,3.57552,5.092333,5.074691,,,,,,,,,,,
-0.1191406,0.7626953,0.8154297,-0.1152344,-0.7900391,0.6342773,-2,-14,-3,-1,5,-1,4,1,-2,-1,-2,-10,-8,-5,0,1,-7.625,-7.625,-7.625,5.1875,5.1875,5.1875,6.645241,5.135258,9.234574,3.580251,5.100625,5.071681,,,,,,,,,,,
0.3071289,1.016113,0.3745117,-0.2192383,-0.8320313,0.6323242,-9,-15,-9,-14,5,0,4,7,-1,-1,-4,-5,-3,-3,2,2,-8.8125,-8.8125,-8.8125,3,3,3,6.649076,5.11462,9.204879,3.58112,5.12182,5.06697,,,,,,,,,,,
-0.1323242,0.6811523,0.5595703,-0.1582031,-0.7666016,0.6142578,6,14,7,7,2,-1,8,16,-2,-2,-3,-3,-1,5,-1,-3,8.3125,8.3125,8.3125,0.875,0.875,0.875,6.641621,5.097234,9.181151,3.583551,5.145774,5.067267,,,,,,,,,,,
-0.159668,0.8393555,0.4780273,-0.15625,-0.793457,0.6230469,1,4,9,4,7,-47,0,16,-2,0,2,1,1,0,-2,-3,29.625,29.625,29.625,-7.0625,-7.0625,-7.0625,6.672142,5.080386,9.178663,3.5767,5.173347,5.066135,,,,,,,,,,,
-0.04052734,0.7451172,0.3525391,-0.159668,-0.7919922,0.5991211,1,7,2,-8,-53,-10,-17,2,0,-3,-4,-9,-3,3,-3,-1,6.75,6.75,6.75,0.5625,0.5625,0.5625,6.680739,5.019586,9.18476,3.573537,5.196565,5.066082,,,,,,,,,,,
0.2861328,1.080566,0.5229492,-0.1176758,-0.7597656,0.6147461,8,13,13,-41,-19,-8,0,-2,-3,-3,-6,-3,0,-6,-4,-5,133.6875,133.6875,133.6875,-11.4375,-11.4375,-11.4375,6.801613,4.957345,9.174937,3.566053,5.207771,5.074146,,,,,,,,,,,
0.1772461,1.253906,0.5253906,-0.08886719,-0.7910156,0.6030273,7,-3,5,-33,-32,3,20,8,2,0,-4,-6,0,3,-3,-2,5.9375,5.9375,5.9375,-12.5625,-12.5625,-12.5625,6.853156,4.920898,9.212247,3.552183,5.205559,5.085749,,,,,,,,,,,
0.02001953,0.8417969,0.4858398,-0.09960938,-0.8022461,0.6176758,-11,-22,9,-13,-14,-2,-6,-9,-2,-2,-1,-8,1,4,6,3,-46.625,-46.625,-46.625,-4.6875,-4.6875,-4.6875,6.798601,4.92197,9.272326,3.546515,5.196674,5.098281,,,,,,,,,,,
-0.1020508,0.8564453,0.5268555,-0.1005859,-0.7382813,0.6254883,19,-16,-6,8,1,-2,-1,13,-3,-1,5,10,3,11,1,0,-51.875,-51.875,-51.875,-2.8125,-2.8125,-2.8125,6.734413,4.945627,9.334313,3.548099,5.184046,5.105402,,,,,,,,,,,
-0.2685547,0.8696289,0.5727539,-0.1000977,-0.8007813,0.6518555,-8,-37,-24,4,-3,-1,0,6,-1,0,1,-7,-6,-7,0,3,-67.4375,-67.4375,-67.4375,-9.5625,-9.5625,-9.5625,6.657767,4.999045,9.371692,3.54063,5.170012,5.10592,,,,,,,,,,,
-0.2602539,0.7436523,0.5141602,-0.1132813,-0.7963867,0.6582031,5,6,-1,1,3,0,0,-17,-1,1,-1,3,5,8,5,2,-45.6875,-45.6875,-45.6875,6.5625,6.5625,6.5625,6.592885,5.078247,9.358056,3.5452,5.161699,5.10148,,,,,,,,,,,
-0.2001953,0.7661133,0.4589844,-0.1494141,-0.7890625,0.6264648,1,-2,-8,4,23,9,3,-3,-1,0,-6,-6,-4,-1,3,2,-1,-1,-1,5.8125,5.8125,5.8125,6.580209,5.137288,9.306013,3.553462,5.165751,5.095243,,,,,,,,,,,
-0.1958008,0.8354492,0.3974609,-0.1723633,-0.8164063,0.6279297,-6,9,5,-1,57,18,5,-2,0,-2,0,-2,-2,5,2,0,29.75,29.75,29.75,6.1875,6.1875,6.1875,6.597533,5.169435,9.240017,3.558702,5.176439,5.090255,,,,,,,,,,,
0.1235352,0.9545898,0.5498047,-0.1513672,-0.8027344,0.6040039,2,-40,-15,-8,-23,0,8,0,1,-2,-1,-4,-4,2,-1,-5,71.4375,71.4375,71.4375,6.875,6.875,6.875,6.68012,5.161176,9.185066,3.565387,5.186275,5.089466,,,,,,,,,,,
-0.02197266,0.8759766,0.546875,-0.09521484,-0.793457,0.6142578,-3,22,6,-13,24,1,6,-12,0,0,1,5,6,2,1,0,-30.3125,-30.3125,-30.3125,-3.5625,-3.5625,-3.5625,6.669732,5.125303,9.201432,3.563202,5.191082,5.093317,,,,,,,,,,,
-0.1538086,0.7919922,0.5732422,-0.1088867,-0.8364258,0.6616211,1,3,-2,11,0,1,2,14,0,2,-3,-2,0,7,-5,3,4.5625,4.5625,4.5625,3.375,3.375,3.375,6.652891,5.102739,9.224873,3.563882,5.194262,5.103949,,,,,,,,,,,
-0.1772461,0.8862305,0.5180664,-0.125,-0.734375,0.6166992,1,25,-7,-8,-16,-2,-2,-4,0,-2,-6,-8,-6,-3,1,0,-6.8125,-6.8125,-6.8125,2,2,2,6.653831,5.098132,9.232072,3.572546,5.199593,5.108054,,,,,,,,,,,
-0.1831055,0.8427734,0.5161133,-0.1567383,-0.7783203,0.6240234,11,1,0,9,-6,-1,3,2,-1,0,2,-1,-1,0,-3,-3,1.4375,1.4375,1.4375,-8.5,-8.5,-8.5,6.649495,5.100497,9.23122,3.563042,5.202824,5.104106,,,,,,,,,,,
-0.1342773,0.8828125,0.5351563,-0.1777344,-0.7856445,0.6269531,-2,-21,-4,10,-7,-5,4,-2,1,1,3,-6,-10,-8,2,0,-3.8125,-3.8125,-3.8125,5.75,5.75,5.75,6.647879,5.105453,9.224609,3.565375,5.202374,5.098587,,,,,,,,,,,
-0.1118164,0.8334961,0.53125,-0.1645508,-0.7529297,0.5908203,1,3,2,-6,38,1,2,1,0,-4,-5,-5,-5,-3,0,-4,-2.0625,-2.0625,-2.0625,-1,-1,-1,6.641018,5.111634,9.221447,3.56834,5.201204,5.101456,,,,,,,,,,,
-0.08984375,0.9179688,0.5556641,-0.09521484,-0.8359375,0.6582031,-3,-4,-4,-67,40,11,2,-9,0,-1,-4,-6,0,-1,2,-1,-0.4375,-0.4375,-0.4375,-9.75,-9.75,-9.75,6.643017,5.116005,9.219591,3.557074,5.191497,5.105834,,,,,,,,,,,
-0.1020508,0.878418,0.5317383,-0.08496094,-0.7993164,0.6811523,1,1,2,17,2,2,-2,-1,0,-1,1,3,0,-1,-3,0,-6.1875,-6.1875,-6.1875,9.6875,9.6875,9.6875,6.63484,5.125089,9.217847,3.564755,5.185202,5.109436,,,,,,,,,,,
-0.1367188,0.8881836,0.4770508,-0.1381836,-0.762207,0.5844727,1,-6,-15,-1,-10,-9,-2,-1,-1,-3,-4,-1,3,7,3,-1,4.6875,4.6875,4.6875,0.4375,0.4375,0.4375,6.639685,5.13473,9.214067,3.571949,5.187476,5.110157,,,,,,,,,,,
-0.1035156,0.8227539,0.512207,-0.09863281,-0.8164063,0.6425781,-2,-1,1,-13,-7,-7,-16,1,-1,-1,0,-3,-1,-7,-7,-1,-3.6875,-3.6875,-3.6875,-2.1875,-2.1875,-2.1875,6.638201,5.135105,9.207531,3.56548,5.181896,5.107172,,,,,,,,,,,
-0.1035156,0.8427734,0.5317383,-0.1103516,-0.7539063,0.6181641,0,-2,0,34,-9,-3,3,-4,2,0,-1,-1,-3,-4,-3,-2,3.875,3.875,3.875,9.625,9.625,9.625,6.639156,5.133608,9.199409,3.574702,5.173757,5.100854,,,,,,,,,,,
-0.08251953,0.7890625,0.5532227,-0.07910156,-0.7456055,0.6254883,0,-6,-2,13,-4,-3,-3,-2,-1,-2,-2,0,-3,-9,-24,-2,-8.875,-8.875,-8.875,-0.75,-0.75,-0.75,6.625969,5.120316,9.18975,3.578429,5.15966,5.098442,,,,,,,,,,,
-0.0703125,0.7553711,0.6083984,-0.02490234,-0.7558594,0.6088867,0,-1,0,0,2,-1,1,1,0,0,-8,-3,-1,5,26,0,-9.375,-9.375,-9.375,7.125,7.125,7.125,6.616019,5.112823,9.187129,3.583095,5.130898,5.097849,,,,,,,,,,,
-0.2353516,0.8720703,0.1806641,-0.05126953,-0.6391602,0.5571289,0,-2,-3,-3,-5,-2,-2,-5,11,-18,-8,-8,1,4,27,7,-6,-6,-6,9.75,9.75,9.75,6.605582,5.087511,9.177736,3.597303,5.079211,5.110508,,,,,,,,,,,
-0.03076172,0.6489258,0.5112305,-0.03857422,-0.6357422,0.5371094,-5,-1,0,-1,-1,-6,0,1,-4,22,17,38,0,-1,5,-2,-17.375,-17.375,-17.375,-5.875,-5.875,-5.875,6.565098,5.038211,9.146526,3.597495,4.993851,5.146001,,,,,,,,,,,
-0.01025391,0.6381836,0.4345703,0.1137695,-0.7807617,0.5561523,-14,-1,-2,-2,-4,-5,1,-3,-4,-4,0,-8,-1,-1,10,-1,-4.9375,-4.9375,-4.9375,-16.6875,-16.6875,-16.6875,6.554893,4.921319,9.103469,3.570739,4.873485,5.211015,,,,,,,,,,,
0.1416016,0.7021484,0.4819336,0.01708984,-0.7104492,0.4814453,11,7,15,-9,0,6,1,-2,1,-4,5,4,6,2,-3,1,-10,-10,-10,12.5625,12.5625,12.5625,6.551228,4.745672,9.064676,3.567235,4.724782,5.286935,,,,,,,,,,,
0.3100586,0.7519531,0.4272461,0.4155273,-0.7045898,0.5356445,-2,-1,-2,2,-6,-2,-3,-1,1,0,-6,-6,-6,2,1,-2,20.4375,20.4375,20.4375,-39.125,-39.125,-39.125,6.579545,4.427906,8.977096,3.499841,4.427543,5.407319,,,,,,,,,,,
0.5073242,0.7446289,0.5244141,0.3994141,-0.7026367,0.4541016,-4,-5,0,5,1,-4,-2,-10,-1,0,2,-3,0,0,-4,-3,20.5625,20.5625,20.5625,-29.5625,-29.5625,-29.5625,6.601538,4.312451,8.948481,3.434934,4.213313,5.475308,,,,,,,,,,,
0.4375,0.6855469,0.4619141,0.6796875,-0.5849609,0.3569336,-8,-2,-1,-3,0,3,-1,0,-6,-7,7,-3,-5,-1,1,-1,-6.8125,-6.8125,-6.8125,-43.5625,-43.5625,-43.5625,6.622635,4.083622,8.901175,3.352543,3.972669,5.54656,,,,,,,,,,,
0.6396484,0.5180664,0.3847656,0.8168945,-0.5869141,0.3701172,17,1,-1,1,1,4,5,5,-1,3,3,-4,1,1,-3,-2,28.9375,28.9375,28.9375,-44.25,-44.25,-44.25,6.67461,3.827317,8.839408,3.25057,3.729554,5.625803,,,,,,,,,,,
