ALX,ALY,ALZ,ARX,ARY,ARZ,EMG0L,EMG1L,EMG2L,EMG3L,EMG4L,EMG5L,EMG6L,EMG7L,EMG0R,EMG1R,EMG2R,EMG3R,EMG4R,EMG5R,EMG6R,EMG7R,GLX,GLY,GLZ,GRX,GRY,GRZ,ORL,OPL,OYL,ORR,OPR,OYR
-0.2827148,0.7402344,0.4384766,-0.59375,-0.8803711,0.3081055,6,1,-1,-6,5,0,-1,15,-3,-2,0,-8,-8,0,3,3,9.125,9.125,9.125,2.375,2.375,2.375,6.7253,5.400988,1.40801,3.366851,5.218659,5.104467
-0.2387695,0.8271484,0.4296875,0.2192383,-0.7949219,0.3505859,-3,-2,-1,4,0,14,-4,-32,1,-1,1,7,2,7,-3,1,3.5625,3.5625,3.5625,6.5625,6.5625,6.5625,6.7235,5.380856,1.391151,3.372914,5.225102,5.105186
-0.1025391,0.7529297,0.5004883,-0.3999023,-0.8256836,0.3334961,8,1,8,-36,-41,43,7,13,-5,-1,-1,0,0,-1,2,-1,26.5625,26.5625,26.5625,-0.875,-0.875,-0.875,6.712538,5.276035,1.377576,3.364599,5.262953,5.097133
-0.06445313,0.940918,0.4921875,-0.7875977,-0.8759766,0.3217773,2,-5,-5,-6,-16,14,16,4,-1,-3,-14,-13,1,-1,-3,0,83.625,83.625,83.625,5.5,5.5,5.5,6.758679,5.240181,1.378666,3.357917,5.289822,5.098577
-0.07519531,1.272949,0.4238281,0.5791016,-0.6655273,0.5791016,3,10,-2,-17,-1,13,25,22,2,1,9,8,-2,-4,-4,-3,36.875,36.875,36.875,-16,-16,-16,6.843556,5.170603,1.423557,3.364755,5.26105,5.12065
0.1982422,0.8955078,0.3461914,0.2441406,-0.6738281,0.4584961,1,4,9,-1,18,4,0,11,-1,-1,19,32,2,-1,0,-4,-66.0625,-66.0625,-66.0625,-16.625,-16.625,-16.625,6.802533,5.108116,1.477607,3.348793,5.211506,5.135487
-0.1679688,0.9018555,0.644043,0.3535156,-0.9189453,0.9145508,-4,15,-2,0,13,6,-10,-23,-3,0,1,-2,1,-1,-1,-2,-33.0625,-33.0625,-33.0625,-8.1875,-8.1875,-8.1875,6.752558,5.081616,1.525966,3.363927,5.139606,5.149505
-0.3339844,0.9814453,0.5576172,-0.7475586,-0.9677734,0.1293945,8,24,-3,2,1,1,8,10,-3,1,2,7,-1,-4,3,2,-99.8125,-99.8125,-99.8125,0.4375,0.4375,0.4375,6.657568,5.120919,1.557542,3.349387,5.15154,5.148966
-0.2636719,0.8227539,0.5400391,-0.4272461,-1.094238,0.5561523,-9,-11,-1,3,3,3,7,1,-2,1,-10,-9,10,3,-2,3,-84.5625,-84.5625,-84.5625,-7.5,-7.5,-7.5,6.60964,5.151434,1.55528,3.356301,5.12181,5.145558
-0.2583008,0.7744141,0.5356445,-0.7177734,-1.088379,0.07666016,-4,1,1,-30,57,18,3,8,-3,2,0,3,-3,-3,-2,-3,-10.875,-10.875,-10.875,8,8,8,6.571851,5.224097,1.523237,3.360365,5.119289,5.132924
-0.2441406,0.7866211,0.4985352,0.02001953,-0.6210938,0.7426758,2,2,-3,-31,37,-1,-3,-7,-2,-5,-2,-1,5,12,8,0,1.8125,1.8125,1.8125,8.5625,8.5625,8.5625,6.568686,5.280339,1.479482,3.394967,5.095367,5.123692
-0.2592773,0.8115234,0.3305664,-0.6342773,-1.149902,0.08056641,-4,-20,-11,-11,-47,-15,0,-13,-3,0,-7,-13,-8,-12,-9,-4,49.6875,49.6875,49.6875,12.625,12.625,12.625,6.600757,5.307595,1.436867,3.361874,5.149125,5.110068
0.01416016,0.9570313,0.4794922,0.06689453,-0.9633789,0.7236328,-2,-4,-6,-13,-15,-7,-3,-1,-1,-2,0,3,0,3,-7,-3,53.4375,53.4375,53.4375,0.5,0.5,0.5,6.67145,5.277575,1.416226,3.369343,5.154,5.112007
0.02392578,1.009766,0.5351563,0.07373047,-1.041016,0.8276367,-5,-12,0,48,10,5,2,-3,-3,-4,-4,-5,-6,-10,8,-6,-4.5625,-4.5625,-4.5625,-5.375,-5.375,-5.375,6.671746,5.248199,1.423768,3.378488,5.137027,5.11771
-0.2368164,0.7758789,0.65625,-0.1821289,-1.12207,0.5410156,5,0,-8,-8,-6,2,-2,6,0,-2,-5,4,-1,-1,4,1,-26.0625,-26.0625,-26.0625,13.0625,13.0625,13.0625,6.624909,5.220125,1.431864,3.380481,5.141601,5.116559
-0.2456055,0.8618164,0.4892578,-0.6855469,-0.9814453,-0.3662109,0,17,0,2,3,-5,3,-2,-3,-3,-6,-3,3,5,-1,2,7.875,7.875,7.875,10.9375,10.9375,10.9375,6.627174,5.223209,1.423763,3.341522,5.192195,5.107543
-0.1850586,0.8935547,0.4956055,0.3916016,-0.6376953,1.446777,-4,-9,-1,-4,0,-2,11,-6,0,-2,-1,-5,-3,-2,5,-1,4.1875,4.1875,4.1875,-19.75,-19.75,-19.75,6.635719,5.225939,1.419517,3.368691,5.173533,5.12204
-0.1958008,0.8671875,0.5424805,-0.05810547,-0.8925781,0.5620117,0,-4,-3,-8,8,2,-4,-5,1,-2,4,4,-5,-1,-14,0,-5.5625,-5.5625,-5.5625,7.375,7.375,7.375,6.627836,5.230258,1.409153,3.371306,5.162684,5.132017
-0.184082,0.8481445,0.5449219,-0.1362305,-0.8017578,0.519043,-3,-3,-2,0,0,0,1,4,-2,-1,-7,-10,1,3,-3,1,-5.1875,-5.1875,-5.1875,1.3125,1.3125,1.3125,6.622945,5.233138,1.400294,3.380382,5.161261,5.136173
-0.1782227,0.8374023,0.534668,-0.1328125,-0.8476563,0.515625,3,0,1,-24,1,0,4,0,1,-2,-2,-4,-5,-3,0,-3,-1.375,-1.375,-1.375,-9.25,-9.25,-9.25,6.617379,5.237081,1.390308,3.375552,5.159749,5.140013
-0.1816406,0.8583984,0.519043,-0.09326172,-0.8798828,0.5664063,3,3,4,-5,-3,4,-5,2,-1,-2,1,3,-1,-1,7,-2,7,7,7,-2.0625,-2.0625,-2.0625,6.621161,5.239004,1.385086,3.370196,5.154552,5.144357
-0.1435547,0.855957,0.5297852,-0.1054688,-0.8193359,0.5405273,0,6,3,-3,1,-1,-3,-4,-2,1,7,14,3,2,4,4,2.875,2.875,2.875,8.625,8.625,8.625,6.626334,5.234244,1.383692,3.381433,5.149306,5.142406
-0.1538086,0.8295898,0.5429688,-0.07080078,-0.8276367,0.5493164,-1,-2,-2,-12,-17,-2,-3,-2,-1,-2,3,-5,-2,-2,-12,-3,0.5625,0.5625,0.5625,-0.5,-0.5,-0.5,6.625133,5.226392,1.383883,3.38523,5.138396,5.142072
-0.1518555,0.8334961,0.5380859,-0.01855469,-0.8305664,0.5571289,2,2,1,-6,-3,0,-2,0,1,0,2,2,1,2,-4,-1,0.5,0.5,0.5,7.3125,7.3125,7.3125,6.622648,5.218483,1.376372,3.392108,5.116084,5.143154
-0.1240234,0.809082,0.5297852,0.00390625,-0.8071289,0.5698242,0,4,-2,-4,2,2,1,-4,-1,1,4,2,-2,-1,0,0,-3.9375,-3.9375,-3.9375,10.25,10.25,10.25,6.618639,5.212281,1.370142,3.399637,5.099547,5.143438
-0.1254883,0.6982422,0.4829102,-0.03564453,-0.6977539,0.4638672,-2,-2,-2,-1,-5,-4,-15,1,3,-1,0,-3,-1,-1,0,0,2.1875,2.1875,2.1875,9.625,9.625,9.625,6.605307,5.170141,1.335348,3.421044,5.014674,5.154495
-0.0625,0.7060547,0.4599609,-0.01513672,-0.7216797,0.4785156,1,0,0,-15,-16,-13,2,2,7,-3,1,-3,-2,0,-1,-3,-14.625,-14.625,-14.625,-0.5625,-0.5625,-0.5625,6.594024,5.091088,1.29817,3.424587,4.919643,5.189836
-0.09814453,0.65625,0.4736328,0.09179688,-0.7324219,0.5454102,-3,-1,1,62,10,-6,-1,-4,0,0,-1,-2,1,-1,-2,1,-36.8125,-36.8125,-36.8125,2.125,2.125,2.125,6.555143,4.962584,1.259045,3.42107,4.781032,5.239704
-0.04443359,0.6005859,0.4912109,0.05175781,-0.7553711,0.4892578,-1,-5,-10,-12,-4,-2,1,-2,0,-2,-3,-3,-5,-5,-5,-1,-19.4375,-19.4375,-19.4375,25.875,25.875,25.875,6.544984,4.878917,1.23469,3.436866,4.612595,5.282988
0.1845703,0.71875,0.5219727,0.2709961,-0.6079102,0.4921875,3,1,4,-5,1,-1,-2,-3,-1,-1,-3,-3,-2,-1,-1,2,28.75,28.75,28.75,17.3125,17.3125,17.3125,6.585723,4.58356,1.154378,3.449152,4.412026,5.330354
0.3422852,0.815918,0.4384766,0.3256836,-0.6782227,0.5063477,-1,1,1,-3,1,-2,1,1,-2,-3,-5,1,1,1,9,-1,25.375,25.375,25.375,-12.1875,-12.1875,-12.1875,6.625736,4.345137,1.131378,3.415701,4.205288,5.390093
0.5454102,0.637207,0.4921875,0.5761719,-0.7753906,0.418457,-3,1,-2,-2,-4,-4,1,-1,-1,0,14,-2,2,1,3,2,-2.5625,-2.5625,-2.5625,-15,-15,-15,6.627423,4.097689,1.131055,3.353318,3.984217,5.470982
0.5449219,0.6230469,0.3930664,0.7768555,-0.6894531,0.402832,-8,-1,-3,2,2,1,-1,-2,-3,1,0,-8,0,-1,0,0,31,31,31,35,35,35,6.667176,3.857608,1.099393,3.317553,3.769458,5.559397
0.8022461,0.6762695,0.3774414,0.7553711,-0.5371094,0.2563477,2,3,-1,1,1,-2,-2,0,2,-1,-3,0,-1,-3,-3,-2,27.6875,27.6875,27.6875,43.375,43.375,43.375,6.759435,3.613138,1.023037,3.287089,3.563164,5.675117
0.8505859,0.6494141,0.3500977,1.045898,-0.5166016,0.2392578,-2,0,-1,-2,1,-1,-2,-1,-2,-1,-4,0,2,1,0,1,10.625,10.625,10.625,0.375,0.375,0.375,6.807546,3.491286,0.9695761,3.159809,3.362715,5.838793
1.043945,0.5014648,0.2001953,1.054688,-0.6264648,0.2241211,-4,-1,-1,-1,0,3,-1,3,-2,0,0,-3,-4,-3,1,-3,-6.0625,-6.0625,-6.0625,9,9,9,6.952512,3.25638,0.7962738,3.081185,3.271894,5.934662
1.19043,0.4589844,0.0546875,1.086914,-0.5097656,0.09228516,-1,-1,-2,-1,0,-2,0,-5,-1,-1,-2,4,0,-2,-3,-2,-31.875,-31.875,-31.875,58.25,58.25,58.25,7.19423,3.058327,0.5037521,2.908894,3.1072,6.178731
1.209961,0.2929688,-0.1933594,1.088379,-0.3876953,-0.04541016,-3,0,0,1,-6,0,-3,2,-5,-2,0,-1,0,0,4,-1,-42.875,-42.875,-42.875,69.6875,69.6875,69.6875,7.535375,2.926915,0.09747842,2.679697,2.996113,6.50573
1.104492,0.2871094,-0.3007813,1.117676,-0.2524414,0.05322266,6,-1,-2,0,-5,0,0,0,-1,0,-1,1,1,-3,-1,5,-20.25,-20.25,-20.25,73.1875,73.1875,73.1875,7.906727,2.870882,9.689529,2.475528,2.931146,6.799744
1.078125,0.2094727,-0.2573242,1.009277,-0.1450195,-0.1313477,1,0,-1,-2,2,-1,-4,-3,-2,-2,-1,-1,-1,-1,-1,-6,-18.1875,-18.1875,-18.1875,13.75,13.75,13.75,8.02773,2.854739,9.556261,2.327553,2.892821,6.997399
0.9882813,0.2426758,-0.1264648,0.9985352,-0.3481445,0.08349609,6,-1,-2,1,0,2,4,-3,0,-1,0,-3,-1,-3,-3,-6,29.8125,29.8125,29.8125,-48.3125,-48.3125,-48.3125,8.120346,2.83723,9.482173,2.217303,2.868001,7.066071
0.9492188,0.2910156,0.04101563,0.9804688,-0.4506836,0.07861328,-6,2,2,1,-1,-2,-3,-2,-3,-1,-1,-1,-2,0,-1,-9,45.5625,45.5625,45.5625,-31.5625,-31.5625,-31.5625,8.034476,2.831087,9.615494,2.216267,2.867116,7.050663
0.9072266,0.371582,0.1416016,0.9360352,-0.3999023,0.09423828,9,-3,-2,-2,4,2,0,-2,-2,-2,0,-1,-2,0,1,0,38.0625,38.0625,38.0625,17.25,17.25,17.25,7.846762,2.839968,9.852975,2.283011,2.871375,6.993459
0.8662109,0.4140625,0.1889648,0.9140625,-0.3374023,0.125,-3,-2,-1,2,-1,-1,-1,-7,-2,-4,0,-1,0,0,1,0,4.1875,4.1875,4.1875,23.0625,23.0625,23.0625,7.672619,2.864928,0.04386393,2.395952,2.879811,6.905393
0.8535156,0.3989258,0.1743164,0.9003906,-0.3232422,0.1157227,-2,0,0,-2,5,-4,0,-1,-1,-4,-3,-4,0,-1,-1,1,-16.5,-16.5,-16.5,16.9375,16.9375,16.9375,7.613927,2.87924,0.09235793,2.492951,2.897754,6.828893
0.8603516,0.3383789,0.09912109,0.9296875,-0.340332,0.09375,-5,0,-2,2,-5,-3,-2,1,0,-3,-2,2,0,-1,0,-3,-49.9375,-49.9375,-49.9375,19.1875,19.1875,19.1875,7.562756,2.902789,0.0952038,2.568603,2.924144,6.773492
0.9135742,0.2753906,0.03613281,0.956543,-0.3398438,0.06982422,-1,1,0,6,-3,-3,1,6,0,0,-2,0,2,-2,-3,2,-62.875,-62.875,-62.875,23.5625,23.5625,23.5625,7.543857,2.921536,0.04309945,2.601437,2.938791,6.753696
0.9575195,0.2211914,-0.01855469,0.9931641,-0.3227539,0.03857422,-4,0,-2,1,0,-3,-1,1,-2,-1,-2,-1,-1,-1,-1,-4,-44.125,-44.125,-44.125,27.5625,27.5625,27.5625,7.53298,2.932667,9.997409,2.665446,2.968213,6.718969
0.9833984,0.2045898,-0.03662109,1.004395,-0.3022461,0.006347656,3,0,0,-3,-1,1,-1,4,-1,-4,-2,-1,1,0,-1,-4,-13.625,-13.625,-13.625,17.6875,17.6875,17.6875,7.504567,2.942596,0.002928387,2.726299,2.999115,6.678451
0.9941406,0.21875,-0.02441406,0.9667969,-0.2963867,-0.001953125,-11,-2,-2,-4,-7,4,-2,-13,1,-2,1,-1,-2,0,0,1,6.8125,6.8125,6.8125,5.6875,5.6875,5.6875,7.45906,2.955926,0.05433528,2.787827,3.032823,6.622665
0.9628906,0.2568359,0.00390625,0.9306641,-0.3017578,0.03222656,0,0,-2,-1,4,1,1,-6,18,1,0,-1,-2,-2,-3,-2,12,12,12,-5.875,-5.875,-5.875,7.390161,2.97337,0.1400719,2.845709,3.067661,6.556395
0.9350586,0.2636719,0.03662109,0.9423828,-0.3178711,0.07617188,4,-1,0,0,-2,-3,-2,0,-10,-2,-2,0,1,-3,-2,-1,4.625,4.625,4.625,-12.4375,-12.4375,-12.4375,7.313407,2.990809,0.2282487,2.885787,3.10051,6.499201
0.9335938,0.2626953,0.04833984,0.9272461,-0.3325195,0.07421875,-13,-3,-2,-1,-3,-3,1,-21,-6,1,-2,0,-1,-2,-3,3,2.125,2.125,2.125,-4.875,-4.875,-4.875,7.277424,2.999298,0.2669467,2.915584,3.128837,6.458147
0.9267578,0.2641602,0.06982422,0.9155273,-0.3320313,0.06542969,-2,0,-1,-4,1,0,5,-20,-2,-1,-2,-1,-2,-1,0,0,0.4375,0.4375,0.4375,-1.5,-1.5,-1.5,7.244537,3.00717,0.3015146,2.928621,3.140952,6.442816
0.9008789,0.2836914,0.05957031,0.9199219,-0.3291016,0.07958984,-3,-4,-1,2,-3,-3,-3,0,-3,-7,0,1,-1,1,-2,0,-1.125,-1.125,-1.125,-7,-7,-7,7.180181,3.026039,0.3679373,2.948147,3.161918,6.413363
0.9091797,0.2978516,0.06396484,0.9316406,-0.3466797,0.07910156,0,-2,0,0,-2,3,-1,-2,4,0,-1,-1,-2,-4,1,-1,-3.875,-3.875,-3.875,-10.375,-10.375,-10.375,7.157484,3.032247,0.386611,2.944272,3.166576,6.405118
0.9321289,0.3012695,0.06591797,0.9370117,-0.3481445,0.08349609,0,-1,-1,-3,1,0,-1,1,-3,-1,-1,-2,0,1,-2,2,-0.125,-0.125,-0.125,-8.5,-8.5,-8.5,7.159147,3.029061,0.3833975,2.935567,3.164595,6.403185
0.9389648,0.3027344,0.06054688,0.9199219,-0.3496094,0.08447266,-2,-2,-1,-3,0,-1,-1,-2,-3,-1,-1,0,-2,-1,-2,-6,2.4375,2.4375,2.4375,-3.3125,-3.3125,-3.3125,7.165077,3.025423,0.3786367,2.923644,3.158092,6.409939
0.9296875,0.3100586,0.05029297,0.9101563,-0.3505859,0.08935547,0,0,-2,-3,-1,-1,-4,-1,-1,1,0,-2,0,-1,-2,-6,4.0625,4.0625,4.0625,-1.625,-1.625,-1.625,7.197362,3.011321,0.3524964,2.909663,3.148218,6.422908
0.9257813,0.3017578,0.05273438,0.9067383,-0.3652344,0.1005859,0,1,-2,-3,-3,1,-1,-2,0,3,0,-3,-2,-1,-2,-10,5.3125,5.3125,5.3125,-4.4375,-4.4375,-4.4375,7.225542,3.00171,0.3283336,2.891225,3.135631,6.438911
0.9262695,0.3071289,0.05273438,0.9067383,-0.375,0.09570313,-2,-1,-1,2,2,-3,2,-1,1,0,-2,-1,-1,0,-2,2,5,5,5,-5.4375,-5.4375,-5.4375,7.243004,2.997639,0.3129463,2.8661,3.120648,6.459931
0.9321289,0.3115234,0.05566406,0.9189453,-0.3798828,0.09082031,1,-1,-1,1,2,2,1,0,-1,-1,-2,0,-2,-1,1,5,1.75,1.75,1.75,-5,-5,-5,7.298864,2.987754,0.2589776,2.835797,3.103639,6.486628
0.9296875,0.3056641,0.05175781,0.9267578,-0.3720703,0.08642578,-3,-1,0,1,2,-1,-2,-2,-1,-5,-1,-1,-2,-2,1,3,-3,-3,-3,-0.25,-0.25,-0.25,7.336216,2.982987,0.2176128,2.804067,3.087308,6.519318
0.9291992,0.2993164,0.04931641,0.9326172,-0.3676758,0.07470703,-1,-2,-1,0,5,-4,-1,1,-1,-4,-1,-2,-1,-2,-1,-3,-2.4375,-2.4375,-2.4375,1.5625,1.5625,1.5625,7.353193,2.981449,0.1978468,2.788108,3.079862,6.537587
0.9296875,0.2993164,0.05029297,0.9370117,-0.3603516,0.05761719,0,0,-3,-2,-7,-5,-2,-2,-6,-1,0,-2,-2,0,1,0,1.75,1.75,1.75,2.25,2.25,2.25,7.40474,2.977548,0.1439684,2.743003,3.062514,6.590246
0.9291992,0.2973633,0.0546875,0.9394531,-0.3623047,0.06494141,-1,-1,1,-1,-6,-1,-2,-5,-1,-1,-1,-3,-2,1,-1,-1,3.125,3.125,3.125,2.6875,2.6875,2.6875,7.432091,2.976091,0.1173407,2.722481,3.057422,6.615238
0.934082,0.2983398,0.06103516,0.9467773,-0.3598633,0.06494141,-2,-1,-1,1,3,-3,-2,1,2,-1,-3,-2,-3,-1,-2,-5,4.1875,4.1875,4.1875,2.75,2.75,2.75,7.444068,2.975628,0.1064442,2.713854,3.056242,6.628173
0.9272461,0.293457,0.05078125,0.9345703,-0.3608398,0.06835938,-2,-2,0,-4,-2,-6,-6,-1,-5,1,-1,-1,0,-2,1,-1,4.875,4.875,4.875,3.25,3.25,3.25,7.46472,2.974444,0.08908201,2.715665,3.059489,6.630681
0.9243164,0.2880859,0.03759766,0.9301758,-0.3632813,0.07666016,0,1,0,-3,-3,0,-2,1,1,-1,9,-3,-2,0,0,-1,1.8125,1.8125,1.8125,2.6875,2.6875,2.6875,7.484095,2.975526,0.07276706,2.726808,3.064471,6.62305
0.9296875,0.2866211,0.04101563,0.9296875,-0.3642578,0.07275391,0,-1,0,2,-6,2,0,-2,0,0,-6,-4,0,-2,2,0,2,2,2,2,2,2,7.485002,2.976251,0.07269736,2.733448,3.067305,6.61744
0.9350586,0.2905273,0.04394531,0.9248047,-0.3583984,0.07226563,-1,-1,-1,-3,-1,-3,-3,-1,-5,-3,1,-2,-1,-1,-2,1,2.4375,2.4375,2.4375,-0.6875,-0.6875,-0.6875,7.480514,2.978735,0.07927191,2.758134,3.077308,6.592672
0.9228516,0.2841797,0.03710938,0.9287109,-0.3652344,0.06982422,-2,1,0,1,-2,1,-3,-3,-1,-1,1,-1,0,-2,-3,0,1.9375,1.9375,1.9375,-0.875,-0.875,-0.875,7.465445,2.98356,0.09776874,2.774118,3.084849,6.574237
0.9272461,0.2919922,0.03564453,0.9345703,-0.3623047,0.07177734,0,-1,-3,4,-1,-3,-2,2,1,1,-1,-2,-2,1,0,-3,1.375,1.375,1.375,0.6875,0.6875,0.6875,7.460037,2.985451,0.1039202,2.792398,3.093333,6.5555
0.9272461,0.2919922,0.03564453,0.9311523,-0.3613281,0.06396484,-1,-1,-1,-1,0,-1,4,1,-1,0,-1,0,-1,-3,0,0,1.375,1.375,1.375,0.8125,0.8125,0.8125,7.460037,2.985451,0.1039202,2.808739,3.101496,6.538808
0.9345703,0.2915039,0.03173828,0.9248047,-0.3608398,0.06787109,-2,0,-2,1,0,-1,0,0,-3,-2,-1,-2,-2,0,-2,0,-0.4375,-0.4375,-0.4375,-0.5,-0.5,-0.5,7.439743,2.991066,0.1244548,2.823756,3.109255,6.522213
0.9243164,0.2905273,0.02587891,0.9199219,-0.3588867,0.07128906,1,-2,0,-3,-2,-2,-2,-2,-1,1,-1,-1,-2,-2,-2,-2,-0.9375,-0.9375,-0.9375,-2.4375,-2.4375,-2.4375,7.420204,2.995549,0.142863,2.836013,3.115921,6.506371
0.9189453,0.2915039,0.03515625,0.9223633,-0.3652344,0.07714844,1,-2,-1,-6,-2,0,-2,-1,0,-4,-3,0,-2,-1,0,-4,1.125,1.125,1.125,-2.0625,-2.0625,-2.0625,7.408725,2.997321,0.1550169,2.845788,3.122025,6.493087
0.9233398,0.293457,0.03076172,0.9228516,-0.3632813,0.06689453,-1,-2,-1,0,1,-1,-1,0,-2,3,-1,-2,0,-2,-2,-1,1.125,1.125,1.125,-1,-1,-1,7.403131,2.999403,0.1600401,2.850403,3.126304,6.486435
